0.19630635708973834
0.19651833268265662
0.19669639218070795
0.1968490146076091
0.19696772093964332
0.19706099020052734
0.19712034336654444
0.1971627384851281
0.19717969653256154
0.1971712175088448
0.19713730141397792
0.19708642727167752
0.1970185950819437
0.19692532582105965
0.19681509851274215
0.1966879131569912
0.19654376975380677
0.1963826683031889
0.19620460880513757
0.19600959125965278
0.19580609469045127
0.19559411909753302
0.19537366448089802
0.19515320986426304
0.1949242762239113
0.19469534258355958
0.19445792991949115
0.19422051725542272
0.193991583615071
0.19375417095100253
0.19352523731065083
0.1932878246465824
0.19305889100623067
0.19282995736587893
0.19260102372552723
0.1923720900851755
0.19215163546854053
0.19192270182818882
0.19170224721155382
0.19147331357120212
0.1912443799308504
0.19101544629049869
0.1907695546027135
0.19053214193864507
0.19027777122714315
0.19002340051564123
0.18975207175670586
0.18947226397405378
0.18919245619140168
0.1888872113375994
0.18857348746008037
0.1882428055351279
0.18790364458645867
0.18753904656663928
0.18716596952310316
0.18677593443213356
0.18636894129373052
0.18595346913161073
0.18552103892205749
0.1850801296887875
0.18461378338436735
0.18413895805623046
0.1836471746806601
0.1831384332576563
0.18262121281093574
0.18209551334049848
0.18155285582262773
0.181010198304757
0.18046754078688626
0.17993336229273227
0.17939070477486155
0.17886500530442426
0.1783477848577037
0.17783904343469992
0.17735573908284627
0.17688091375470938
0.17643152549772267
0.17600757431188616
0.17560906019719982
0.17524446217738043
0.17490530122871126
0.17460005637490894
0.1743287276159736
0.17409131495190514
0.17388781838270362
0.17372671693208575
0.1735995315763348
0.17351474133916747
0.1734638671968671
0.17344690914943364
0.17347234622058383
0.17353169938660096
0.17362496864748497
0.17376063302695266
0.17392173447757053
0.17411675202305532
0.17433720663969032
0.17460005637490894
0.17487986415756104
0.17518510901136333
0.17552426996003256
0.17588038895613523
0.17625346599967134
0.17665198011435768
0.1770589732527607
0.17749140346231396
0.1779238336718672
0.1783732219288539
0.17883108920955734
0.17928895649026075
0.17975530279468094
0.18021317007538437
0.18067951637980453
0.18113738366050797
0.18160372996492813
0.18206159724563156
0.1825279435500517
0.1829942898544719
0.18346911518260878
0.18396937758189585
0.18447811900489966
0.18501229749905368
0.18558039208807459
0.1861739237482457
0.1868098505270005
0.18749665144805563
0.18822584748769444
0.18901439669335032
0.1898622990650234
0.1907695546027135
0.19176160037757092
0.19282995736587893
0.19398310459135426
0.19523800010143033
0.19658616487239045
0.1980615149991015
0.1996555714578468
0.20137681327234302
0.20324219849002367
0.20525172711088874
0.2074223571823717
0.20975408870447249
0.2122554007009079
0.21494325121911137
0.21781764025908296
0.22087856782082255
0.22415147097548044
0.22762787069933982
0.23131624601611747
0.23523355497324686
0.2393713185470112
0.243746494784844
0.24836756271046198
0.2532345223238651
0.25834737362505344
0.26372307466146044
0.2693531464093693
0.27525454691621354
0.2814187971582764
0.28785437615927467
0.294569762942925
0.301547999461794
0.3088060437633151
0.3163438958474883
0.3241530766905968
0.33224206531635747
0.3406023827010534
0.3492340288446848
0.35813700374725155
0.367302828385037
0.37673150275804096
0.38641454784254686
0.39636044266227144
0.4065437501460645
0.41696447029392597
0.4276226031058558
0.4385011905344207
0.4496002325796206
0.46090277119402195
0.4724088063776249
0.4841013800829959
0.49597201328641827
0.5080122269641751
0.5202050630688332
0.5325335635529589
0.5449977284165525
0.5575721205884634
0.5702397820212582
0.5829922336912206
0.5958125175509167
0.6086751965291964
0.6215717916023432
0.6344683866754899
0.6473480237012031
0.6601937446320494
0.6729801123968786
0.6856732109008238
0.6982645611201681
0.7107117679363281
0.7229978733018703
0.7350974401456442
0.7469850313965
0.7586267309595706
0.7699971017637058
0.7810791857614723
0.7918475458817197
0.8022682660295811
0.8123243881576232
0.8219904751946957
0.8312410900696484
0.8400592747350478
0.848411113096027
0.8562966051525862
0.8636733557861415
0.870541364996693
0.8768158425470733
0.8824967884372825
0.8875842026673209
0.8920780852371878
0.8958936459097163
0.8990308846849064
0.9015745917999257
0.9034399770176064
0.9046270403379485
0.9052205719981196
0.9052205719981196
0.9045422501007812
0.9032703965432716
0.901405011325591
0.8990308846849064
0.8959784361468837
0.8925020364230244
0.8884321050389937
0.8838534322319594
0.8787660180019213
0.8732546525860467
0.8673193359843354
0.8609600681967878
0.8541768492234038
0.8470968644199339
0.8396692396440782
0.8319533280618537
0.8239576086969771
0.8157159976443153
0.8072454529513018
0.7985798907128034
0.7897193109288204
0.7806891506705027
0.7715148470090006
0.7621963999443141
0.75276772557131
0.7432373029137053
0.7336136109952165
0.7239136078632771
0.7141542515653205
0.7043525001487804
0.6945083536136566
0.6846472490310993
0.6747691864011086
0.6648826447474011
0.6549961030936937
0.6451265194874197
0.6352654149048624
0.6254212683697387
0.6156110379294818
0.605826244560375
0.5960753672861353
0.5863584061067625
0.57669231906969
0.5670516691037677
0.5574618932801458
0.5479145125751076
0.5384010479649364
0.5289299784733487
0.5194928250766279
0.5100980667984908
0.5007372246152205
0.49141877755053404
0.4821342465807145
0.47290058975319527
0.463700849020543
0.45455198243019107
0.4454455109584227
0.43638143460523815
0.4273767114180706
0.4184143833494868
0.4095029294232033
0.40065082866293694
0.3918665600924044
0.383141644687889
0.3744845614731075
0.3659122684954932
0.3574332447787629
0.3490390112992
0.3407380470805211
0.3325473101701597
0.3244668005681158
0.3165049972981061
0.30866190036013064
0.3009375097541894
0.2933403045039991
0.2858787636332765
0.2785528871420216
0.27135419600651767
0.26429964827419805
0.25737228589762945
0.250597545947962
0.24394999135404552
0.23745505918703017
0.23109579139948247
0.22488914603883595
0.21882664408137384
0.21290828552709612
0.20715102842343633
0.20155487277039436
0.19610286052053683
0.19082042874501387
0.18569061939639211
0.18072191149838818
0.17592278407471887
0.1712762790779507
0.16679935455551714
0.16248353148370145
0.15833728888622037
0.15435214773935715
0.15053658706682857
0.1468821278449178
0.14338877007362497
0.14006499277666673
0.13691079595404307
0.133926179605754
0.13110266470808285
0.1284487302847463
0.1259558973120276
0.12363264481364351
0.12147049376587732
0.11947792319244571
0.11764645406963199
0.1159676073737194
0.11445834115214142
0.11310169735746457
0.1119061550134056
0.11086323509624779
0.10998141662970785
0.1092437415663523
0.10865868892989793
0.10822625872034468
0.10792949289025913
0.1077853494870747
0.10777687046335799
0.10791253484282566
0.10818386360176104
0.1085908567401641
0.1091250352343181
0.10978639908422304
0.11056646926616223
0.11147372480385238
0.11249968667357674
0.1136443548753353
0.11489077136169464
0.1162558941800882
0.11772276528308254
0.11929138467067765
0.12096175234287349
0.12272538927595339
0.12458229546991731
0.126540949948482
0.12857591564049725
0.13070415059339655
0.1329086967597464
0.1352065121869803
0.13757215980394802
0.14002259765808306
0.14254934672566869
0.1451439279829881
0.14781482045375813
0.15054506609054527
0.15335162294078297
0.15620905393332107
0.159134317115593
0.1621104544401653
0.165137465907038
0.16820687249249436
0.17132715322025108
0.1744813500428747
0.1776694629603653
0.18088301294900605
0.184122000008797
0.1873779451160214
0.19065084827067927
0.19392375142533716
0.19720513360371175
0.20047803675836962
0.20374246088931075
0.20699840599653518
0.21022891403260938
0.2134339849975334
0.21661361889130723
0.2197508576664974
0.22285418034682067
0.22590662888484359
0.22889972425684937
0.23184194548655476
0.2347163345265263
0.23752289137676402
0.2402531370135511
0.24291555046060442
0.2454931736704904
0.24797752761949235
0.250377091331327
0.2526749067585609
0.25487097390119406
0.2569568137355097
0.25893242626150786
0.26078933245547176
0.26252753231740145
0.26413854682358023
0.2656308549977247
0.2669959778161183
0.26824239430247765
0.269361625433086
0.2703621502316602
0.2712354896744834
0.2719986018089891
0.2726345285877439
0.27315174903446443
0.2735587421728675
0.27385550800295305
0.27404204652472114
0.2741353157856051
0.2741268367618884
0.2740250884772877
0.27384702897923635
0.27359265826773443
0.27327045536649863
0.2728888992992458
0.27245646908969257
0.27196468571412225
0.2714305072199682
0.2708624126309473
0.27025192292334266
0.2696075171208712
0.2689376742472495
0.26823391527876095
0.26751319826283887
0.2667755231994833
0.26602089008869434
0.2652492989304719
0.2644777077722494
0.26369763759031023
0.2629090883846543
0.2621120601552817
0.26131503192590905
0.2605180036965364
0.2597209754671638
0.2589239472377911
0.25811843998470174
0.2573129327316124
0.256507425478523
0.2556934392017169
0.25487945292491077
0.25404850860067124
0.25321756427643166
0.2523696619047586
0.25150480148565213
0.25063146204282893
0.24973268552885552
0.24882542999116541
0.24788425835860833
0.24692612867861785
0.24594256192747715
0.24493355810518622
0.24389911721174515
0.24283923924715387
0.24175392421141237
0.24064317210452074
0.23950698292647887
0.23833687765357012
0.23714981433322785
0.23593731394173545
0.2346908974553761
0.23341904389786655
0.23213023229292357
0.23080750459311367
0.22946781884587028
0.22811117505119347
0.22673757320908314
0.22535549234325614
0.22395645342999565
0.22254045646930168
0.22112445950860773
0.2197084625479138
0.21828398656350312
0.21685951057909242
0.21542655557096502
0.21399360056283762
0.21256912457842694
0.2111361695702995
0.20969473553845538
0.20826178053032796
0.20682034649848385
0.20537043344292297
0.20392899941107884
0.20248756537923468
0.20104613134739055
0.1996046973155464
0.198171742307419
0.1967387872992916
0.19530583229116416
0.1938813563067535
0.19245688032234282
0.19104088336164887
0.18963336542467163
0.18822584748769444
0.1868183295507172
0.1854192906374567
0.18402025172419623
0.18262121281093574
0.18123065292139198
0.17983161400813152
0.178432575094871
0.17703353618161052
0.1756260182446333
0.17422697933137282
0.17282794041811234
0.17142890150485182
0.17002986259159136
0.16863930270204758
0.16725722183622055
0.16588361999411025
0.16452697619943343
0.16318729045219008
0.16187304177609688
0.16057575114743716
0.15931237661364434
0.15809139719843518
0.15689585485437624
0.1557427076289009
0.15464043454572599
0.1535805565811347
0.1525715527588438
0.15160494405513655
0.15070616754116314
0.1498497861457734
0.14906123694011747
0.1483320409004787
0.147662198026857
0.14706018734296913
0.14652600884881514
0.14605118352067828
0.1456441903822752
0.14531350845732272
0.14504217969838737
0.14483868312918582
0.14471149777343487
0.14464366558370104
0.14465214460741777
0.14472845582086835
0.14486412020033604
0.14506761676953753
0.1453389455284729
0.1456696274534254
0.1460681415681117
0.14653448787253187
0.14705170831925243
0.1476367609557068
0.1482726877344616
0.14896796767923345
0.14972260079002245
0.15051962901939508
0.1513675313910681
0.15226630790504153
0.15320747953759858
0.15419104628873928
0.15520852913474692
0.1562684070993382
0.15736220115879637
0.1584899113131215
0.1596430585385968
0.16082164283522232
0.162025664202998
0.1632551226419239
0.16450153912828325
0.16576491366207605
0.16704524624330233
0.16833405784824532
0.16963134847690503
0.17093711812928147
0.17224288778165794
0.1735486574340344
0.17484594806269413
0.17614323869135387
0.1774235712725801
0.17869542483008966
0.179941841316449
0.18117129975537488
0.18236684209943385
0.1835369473723426
0.1846816155741012
0.18578388865727613
0.1868437666218674
0.18786972849159178
0.18884481621901575
0.18977750882785607
0.19066780631811275
0.19150722966606903
0.19230425789544167
0.19305041198251394
0.19375417095100253
0.19442401382462424
0.19505146157966227
0.19563651421611666
0.19619612978142084
0.19672182925185813
0.19721361262742848
0.19767147990813191
0.19811238914140186
0.19852786130352168
0.19892637541820798
0.1993164105091776
0.1996894875527137
0.20006256459624983
0.2004441206635027
0.20082567673075558
0.20121571182172515
0.2016227049601282
0.20203817712224797
0.20247908635551795
0.2029454326599381
0.20343721603550846
0.20395443648222902
0.20449709400009974
0.20508214663655414
0.2056926363441587
0.2063370421466302
0.20702384306768534
0.2077360810598907
0.20849071417067971
0.20928774240005235
0.21011020770057517
0.21097506811968167
0.21187384463365505
0.21280653724249537
0.21377314594620261
0.21476519172106004
0.2157826745670677
0.21683407350794226
0.2179193885436837
0.21902166162685863
0.22014089275746704
0.2212855609592256
0.22244718720841766
0.22362577150504315
0.22481283482538542
0.22600837716944436
0.22721239853722006
0.22842489892871246
0.22962892029648818
0.23084142068798055
0.23204544205575628
0.23324098439981522
0.2344280477201575
0.23560663201678297
0.236768258265975
0.2379129264677336
0.23904063662205874
0.24014290970523364
0.2412282247409751
0.24227962368184966
0.24330558555157403
0.24430611035014818
0.24528119807757215
0.24623084873384596
0.24714658329525283
0.24802840176179275
0.24888478315718254
0.24970724845770534
0.2504873186396445
0.25122499370300005
0.2519287526714887
0.2525901165213936
0.2532006062289982
0.25377717984173587
0.25430287931217316
0.25477770464031
0.25521013484986327
0.25560016994083284
0.25593933088950205
0.2562276176958709
0.25646503035993934
0.2566515688817074
0.2567872332611751
0.25688050252205913
0.25691441861692604
0.2568889815457759
0.256821149356042
0.2566939640002911
0.256507425478523
0.25627001281445455
0.255973246984369
0.25560864896454955
0.2551931768024298
0.2547098724505762
0.25416721493270544
0.25355672522510087
0.2528953613751959
0.25217464435927384
0.2513945741773347
0.2505551508293784
0.24967333236283845
0.2487406397539981
0.24776555202657413
0.24674806918056652
0.24568819121597524
0.244594397156517
0.2434666870021919
0.24232201880043333
0.2411434345038078
0.23993941313603212
0.2387269127445397
0.23748897528189708
0.23624255879553774
0.23498766328546167
0.23372428875166887
0.23246091421787607
0.2311890606603665
0.22992568612657371
0.22866231159278091
0.22740741608270484
0.22616947862006223
0.22494002018113635
0.22373599881336062
0.2225489354930184
0.22137883022010965
0.22024264104206778
0.21914036795889288
0.2180635319468681
0.21702061202971032
0.21601160820741938
0.2150534785274289
0.21412926494230528
0.21324744647576535
0.2124165021515258
0.21162795294586986
0.21089027788251435
0.21019499793774246
0.2095421131115542
0.20894858145138312
0.20839744490979567
0.20788870348679184
0.20743083620608843
0.2070153640439686
0.2066422870004325
0.2063031260517633
0.20601483924539446
0.20575198951017584
0.20553153489354084
0.20533651734805602
0.20516693687372142
0.205022793470537
0.20489560811478605
0.20478538080646858
0.20469211154558456
0.20459036326098376
0.2045055730238165
0.2044038247392157
0.20430207645461496
0.20418337012258073
0.20405618476682977
0.20392052038736208
0.20376789796046096
0.20359831748612633
0.203420257988075
0.20322524044259022
0.2030217438733887
0.2028012892567537
0.202572355616402
0.20233494295233354
0.20208905126454835
0.20183468055304646
0.2015718308178278
0.20130898108260917
0.20104613134739055
0.2007832816121719
0.2005204318769533
0.20026606116545137
0.20002016947766618
0.19978275681359775
0.19955382317324602
0.19933336855661105
0.1991298719874095
0.1989348544419247
0.19875679494387338
0.1985956934932555
0.1984515500900711
0.1983158857106034
0.19818870035485245
0.1980869520702517
0.19799368280936766
0.19791737159591707
0.19785801842989997
0.19781562331131633
0.19778170721644941
0.1977732281927327
0.19778170721644941
0.19779866526388284
0.19784106038246652
0.19789193452476692
0.19796824573821747
0.19805303597538476
0.19815478425998553
0.19827349059201976
0.19840915497148745
0.19855329837467184
0.19871439982528974
0.19888398029962434
0.19906203979767567
0.19925705734316046
0.19945207488864528
0.19964709243413006
0.19985058900333158
0.2000540855725331
0.2002491031180179
0.2004441206635027
0.20062218016155403
0.20080023965960536
0.20096982013393996
0.2011224425608411
0.20127506498774225
0.20141072936720994
0.2015379147229609
0.2016566210549951
0.2017583693395959
0.20185163860047992
0.20193642883764723
0.2020127400510978
0.20208905126454835
0.2021568834542822
0.2022162366202993
0.2022671107625997
0.20231798490490008
0.20236885904720045
0.2024112541657841
0.20244517026065104
0.20247060733180122
0.2024960444029514
0.20250452342666814
0.2025130024503849
0.20250452342666814
0.20247908635551795
0.20244517026065104
0.20239429611835066
0.2023264639286168
0.20224167369144952
0.20214840443056548
0.20202969809853125
0.2018940337190636
0.20174141129216241
0.2015718308178278
0.20138529229605975
0.20118179572685824
0.2009528620865065
0.20070697039872135
0.2004441206635027
0.20015583385713387
0.19984210997961485
0.19950294903094565
0.199146830034843
0.19875679494387338
0.19834132278175362
0.19790041354848364
0.19744254626778018
0.19695076289220984
0.19644202146920603
0.19590784297505204
0.19535670643346456
0.1947801328207269
0.19418660116055578
0.19356763242923447
0.1929317056504797
0.19227882082429149
0.19160049892695308
0.1909136980058979
0.19020146001369256
0.18947226397405378
0.18872610988698152
0.18795451872875907
0.18716596952310316
0.18635198324629706
0.18552103892205749
0.18467313655038448
0.18379979710756125
0.18290102059358784
0.18198528603218098
0.18105259342334065
0.18010294276706687
0.17914481308707636
0.17816972535965236
0.17717767958479494
0.1761856338099375
0.17518510901136333
0.17417610518907242
0.1731586223430648
0.17214113949705717
0.17112365665104953
0.1700976947813252
0.16908021193531755
0.16806272908930994
0.16704524624330233
0.1660277633972947
0.16501875957500378
0.1640182347764296
0.16300923095413872
0.16201718517928126
0.16102513940442384
0.16003309362956641
0.1590495268784257
0.158065960127285
0.15709087239986103
0.15612426369615376
0.15515765499244652
0.15419104628873928
0.1532413956324655
0.1522917449761917
0.15135057334363466
0.15042635975851104
0.14950214617338745
0.14859489063569734
0.14769611412172393
0.14681429565518397
0.14594943523607748
0.14510153286440447
0.14427906756388165
0.14347356031079225
0.1427019691525698
0.14196429408921427
0.14125205609700894
0.14057373419967054
0.13992932839719904
0.1393357967370279
0.13878466019544045
0.1382759187724366
0.13780957246801648
0.13740257932961342
0.137037981309794
0.13673273645599174
0.13648684476820655
0.136283348199005
0.13614768381953735
0.13606289358237003
0.13603745651121985
0.1360713726060868
0.13615616284325407
0.13630878527015522
0.13652076086307346
0.1367836105982921
0.13711429252324459
0.13749584859049746
0.13793675782376744
0.1384370202230545
0.13898815676464196
0.13960712549596327
0.14026848934586822
0.14099768538550705
0.14176927654372948
0.14259174184425233
0.14346508128707552
0.14438929487219912
0.1453559035759064
0.1463649073981973
0.1474078273153551
0.14849314235109656
0.14961237348170495
0.15075704168346354
0.1519271469563723
0.15312268930043127
0.15434366871564043
0.1555731271545663
0.15681106461720892
0.158065960127285
0.15932085563736106
0.16057575114743716
0.1618306466575132
0.16308554216758928
0.16433195865394862
0.16556141709287453
0.16678239650808369
0.1679948968995761
0.16918196021991833
0.17036054451654384
0.17151369174201914
0.172649880920061
0.17376063302695266
0.1748374690389774
0.17589734700356868
0.1769148298495763
0.17790687562443375
0.17885652628070753
0.1797722608421144
0.18064560028493762
0.1814850236328939
0.18228205186226654
0.18304516399677226
0.1837574019889776
0.18443572388631602
0.18506317164135405
0.18565670330152517
0.1861993608193959
0.18670810224239973
0.18716596952310316
0.18758144168522292
0.18795451872875907
0.18829367967742827
0.1885819664837971
0.18882785817158226
0.1890313547407838
0.1892009352151184
0.18932812057086937
0.18940443178431993
0.18944682690290357
0.1894553059266203
0.18941291080803666
0.1893365995945861
0.1892263722862686
0.18907374985936745
0.1888872113375994
0.18866675672096442
0.1884123860094625
0.18812409920309367
0.18780189630185792
0.18745425632947196
0.18707270026221912
0.18665722810009933
0.18621631886682935
0.1857414935386925
0.18523275211568865
0.18469009459781793
0.184122000008797
0.18351998932490915
0.18289254156987111
0.18223117771996616
0.18153589777519427
0.18081518075927222
0.18006054764848323
0.17927199844282732
0.17845801216602122
0.17761858881806492
0.1767452493752417
0.17583799383755158
0.17490530122871126
0.17394717154872072
0.1729551257738633
0.17193764292785566
0.1708862439869811
0.16980940797495636
0.16870713489178144
0.16757094571373957
0.16641779848826427
0.16523073516792205
0.16402671380014636
0.1628057343849372
0.16155931789857786
0.1603044223885018
0.1590240898072755
0.15773527820233252
0.1564379875736728
0.1551237388975796
0.1538094902214864
0.15247828349795978
0.1511385977507164
0.149798912003473
0.14845074723251292
0.14709410343783608
0.14573745964315923
0.14437233682476566
0.14301569303008882
0.141659049235412
0.1403108844644519
0.13896271969349178
0.13762303394624842
0.1363003062464385
0.1349860575703453
0.13368876694168558
0.1323999553367426
0.13112810177923304
0.12987320626915697
0.12863526880651435
0.12742276841502193
0.12621874704724625
0.12504016275062074
0.12387005747771197
0.12273386829967012
0.121606158145345
0.12050388506217007
0.11942704905014533
0.11837565010927077
0.11734968823954642
0.11635764246468899
0.11539103376098174
0.11444986212842469
0.11355108561445126
0.11267774617162807
0.11183832282367177
0.11104129459429914
0.11027818245979341
0.10955746544387132
0.10887066452281619
0.10822625872034468
0.10761576901274011
0.10705615344743592
0.10653045397699863
0.10603867060142828
0.10559776136815831
0.10519076822975526
0.10482617020993587
0.10449548828498338
0.10420720147861456
0.10396130979082938
0.10374085517419439
0.10356279567614306
0.10341017324924193
0.10329146691720768
0.10320667668004038
0.10314732351402328
0.1031218864428731
0.10311340741915635
0.10313884449030654
0.1031812396088902
0.10324059277490731
0.10332538301207461
0.10342713129667537
0.10353735860499287
0.10367302298446056
0.10381716638764497
0.1039697888145461
0.10413089026516398
0.1043004707394986
0.10447853023754992
0.10466506875931798
0.10485160728108604
0.10504662482657086
0.10525012139577238
0.10544513894125718
0.1056486355104587
0.1058436530559435
0.10604714962514501
0.10624216717062983
0.1064371847161146
0.10663220226159939
0.10681874078336748
0.10700527930513554
0.10718333880318687
0.10736139830123821
0.10753097877557281
0.10769208022619067
0.10784470265309183
0.10799732507999296
0.10813298945946065
0.10825169579149488
0.10836192309981237
0.10846367138441314
0.1085399825978637
0.10859933576388082
0.10864173088246448
0.10865868892989793
0.1086502099061812
0.10861629381131428
0.10854846162158045
0.1084551923606964
0.10833648602866218
0.1081753845780443
0.10798036703255952
0.10774295436849106
0.10747162560955568
0.10715790173203667
0.106801782735934
0.10639478959753096
0.10594540134054425
0.1054536179649739
0.10490248142338643
0.10431742878693205
0.10367302298446056
0.10298622206340541
0.10224854700004987
0.10146847681811069
0.10063753249387113
0.09976419305104792
0.09884845848964105
0.09789880783336725
0.0968982830347931
0.09587232116506873
0.09480396417676074
0.0937016910935858
0.09257398093926067
0.09141235469006864
0.09022529136972642
0.08901279097823399
0.08777485351559136
0.0865199580055153
0.08524810444800575
0.08396607606203615
0.08266963333574809
0.08136386368337163
0.08005385451913681
0.07873960584304363
0.07742620506932212
0.07611365219797228
0.07480618674085247
0.07350550450270606
0.0722124533859047
0.07092957709756341
0.06965941934479723
0.06840367593234947
0.06716319476259185
0.06593967164026768
0.06473480237012032
0.06355113065926477
0.06238865650770105
0.06124907572017251
0.06013408410142248
0.059044529553822646
0.057980412077373
0.05694342747681689
0.055934423654526
0.054954248512871985
0.054002902051854845
0.05308123217384627
0.05219008678121793
0.05132946587396981
0.05049936945210192
0.04970064541798593
0.04893244586925017
0.04819646661063799
0.04749185973977771
0.046819473159040996
0.04617845896605619
0.04556881716082328
0.04499139564571396
0.044445346518356535
0.04392982187637934
0.04344566962215404
0.042992041853308974
0.04256809066747246
0.04217466396701618
0.041810913849568455
0.0414759924127576
0.041169899656583644
0.04089263558104657
0.04064250438140302
0.040421201862396366
0.040226184316911565
0.04005745174494864
0.03991500414650757
0.039797993619216696
0.03970472435833266
0.03963519636385547
0.039588561733413456
0.03956397256463494
0.03956058095514824
0.03957753900258171
0.03961484670693532
0.03967165616583741
0.03974627157454464
0.03983954083542867
0.03994892024137449
0.04007610559712545
0.04021855319556651
0.040376263036697696
0.04055008302289066
0.04073831734940207
0.04094011811386025
0.04115718112100855
0.04138781056610361
0.04163200644914544
0.04189061667250571
0.042161945431441084
0.042447688530694895
0.04274615016552379
0.0430573303359278
0.04338122904190689
0.0437169983810894
0.044063790451103674
0.04442245315432136
0.04479129068599912
0.04517030304613697
0.04556033813710656
0.045960548056536224
0.0463700849020543
0.04678979657603244
0.047219683078470666
0.04765889650699729
0.048109132666355664
0.04857039155654579
0.04904097737282432
0.04952343382230627
0.050015217197876626
0.05051802330427873
0.05103185214151258
0.05155585580720651
0.05209088220373218
0.05263693133108961
0.053193155286907115
0.0537595540711847
0.05433697558629403
0.054924571929863435
0.055522343101892906
0.056129441200010795
0.05674586622421708
0.05737161817451178
0.05800669705089486
0.05865110285336636
0.059303987679554596
0.05996619943183122
0.060636042305452914
0.06131436420279133
0.06200116512384648
0.06269474926387501
0.06339511662287693
0.06410226720085223
0.06481535309542924
0.06553352640423629
0.06625678712727338
0.06698428736216884
0.06771517920655098
0.06844861475804814
0.06918459401666033
0.06992142117764419
0.07065824833862805
0.07139507549961191
0.0721302068558524
0.07286364240734958
0.07359283844698837
0.07431949077951217
0.0750410556978059
0.07575838110424128
0.07647061909644662
0.07717607386967858
0.07787474542393714
0.078564937954479
0.0792466514613041
0.0799190380420408
0.08057870608720241
0.08122650349916061
0.08185903866842868
0.08247546369263496
0.08307323486466445
0.08365235218451714
0.08420857614033464
0.08474275463448865
0.08524810444800575
0.08573140879985938
0.08618927608056282
0.08661322726639933
0.08700326235736891
0.08736786037718831
0.0876985423021408
0.08798682910850962
0.08824967884372827
0.08847013346036324
0.08865667198213131
0.08880929440903246
0.08891952171734996
0.08900431195451726
0.0890467070731009
0.08906366512053436
0.08903822804938417
0.08897887488336706
0.08889408464619976
0.08877537831416553
0.08863123491098113
0.08846165443664651
0.088258157867445
0.08803770325081
0.08779181156302483
0.08752896182780619
0.08724915404515408
0.08695238821506854
0.08663018531383279
0.08629950338888032
0.0859603424402111
0.08560422344410842
0.0852311464005723
0.08485806935703617
0.0844671863636949
0.08406952015138025
0.08366507072009222
0.08325299016745913
0.08283497429822434
0.08241271891713116
0.08198452821943629
0.08155294591225472
0.08111881989795813
0.08068130227417486
0.08024208884564824
0.07980033171000658
0.07935857457436493
0.07891512163397996
0.07847082079122328
0.07802651994846661
0.07758137120333827
0.07713707036058162
0.07669192161545328
0.07624592496795327
0.07579908041808159
0.07535138796583823
0.07490199970885152
0.07444921984237814
0.07399389626878972
0.07353348528097127
0.07306883478129444
0.07259740106264424
0.07211918412502066
0.07163248816368034
0.07113646527625163
0.0706285717556195
0.07010880760178392
0.06957462910762992
0.0690251883707858
0.06845794168413655
0.06787288904768217
0.06726663885193594
0.0666400389992696
0.0659888499778247
0.06531391968997298
0.06461355233097106
0.06388774790081896
0.06313565849714499
0.0623589799246925
0.061558560085833165
0.060734398980566984
0.059889040316008973
0.05902333199453082
0.05813896982087586
0.057238497502159105
0.056322762940752245
0.05539515774614196
0.054455681918328246
0.05350772706679781
0.05255129319155063
0.05158977190207343
0.05062401110073785
0.049654858689915586
0.048684010474349976
0.04771231435641269
0.046742314043218755
0.04577316163239648
0.04480740083106091
0.04384672744395538
0.04289029356870821
0.04194064291243442
0.0409986233775057
0.04006423496392202
0.03913917347642675
0.038225134719763236
0.037321270791559794
0.03642927749655977
0.035549154834763175
0.03468175070854167
0.03382706511789526
0.032986793867567296
0.0321600890551861
0.03134864648549501
0.030551618256122376
0.029769004367068173
0.02900250062307576
0.02825125912177346
0.027516975667904627
0.026798802359097575
0.02609673919535231
0.02541248198141218
0.02474433491253384
0.024093993793460628
0.023461458624192553
0.02284588150235794
0.02224895823270013
0.02166814510810411
0.021105985835684897
0.020560784610699143
0.02003254143314685
0.01952295210777136
0.019029472927457658
0.018554647599320767
0.01809593241624566
0.017655023182975692
0.017231071997139177
0.016824078858736127
0.016433195865394865
0.016058423017115388
0.015700608216269372
0.01535805565811347
0.015030765342647684
0.014718737269872011
0.01442112353741478
0.01413792414527599
0.01386829119108397
0.01361307257721039
0.01336972459654023
0.013139943053816843
0.012922032144296875
0.012716839770352002
0.01252267012723888
0.01234037111732918
0.01216909483825123
0.012007993387633354
0.011857914667847231
0.011718010776521182
0.011587433811283535
0.011467031674505966
0.011355108561445127
0.011251664472101018
0.01115669940647364
0.011069365462191318
0.010989662639254055
0.010917590937661847
0.010851454552671351
0.01079210138665424
0.010737835634867165
0.010689505199681804
0.010647110081098154
0.010608954474372866
0.010575038379505946
0.010546209698869064
0.010521620530090545
0.01050042297079872
0.01048346492336526
0.010469050583046818
0.010458875754586741
0.010450396730870011
0.010445309316639973
0.010442765609524955
0.010442765609524955
0.010445309316639973
0.010449548828498337
0.01045548414510005
0.01046396316881678
0.010473290094905182
0.010484312825736933
0.010496183458940354
0.01050890199451545
0.010522468432462219
0.010536034870408986
0.010550449210727429
0.01056486355104587
0.01057927789136431
0.010593692231682751
0.010607258669629522
0.010620825107576289
0.010633543643151385
0.010645414276354806
0.010657284909558229
0.010668307640389979
0.010679330371221728
0.010689505199681804
0.010698832125770207
0.010707311149486937
0.010715790173203668
0.010723421294548724
0.010731052415893783
0.010738683537238839
0.010746314658583896
0.01075309787755728
0.010760728998902338
0.010768360120247396
0.010776839143964125
0.010785318167680856
0.010793797191397586
0.01080312411748599
0.010813298945946065
0.010824321676777814
0.010835344407609564
0.010847215040812985
0.010860781478759756
0.010874347916706523
0.010888762257024965
0.010904872402086752
0.01092098254714854
0.010938788496953674
0.01095744234913048
0.010977792006050632
0.010998989565342458
0.011021035027005957
0.011043928391041128
0.011068517559819645
0.011093954630969837
0.011121087506863372
0.011149068285128584
0.011177049063393793
0.011206725646402349
0.011236402229410903
0.011267774617162805
0.011298299102543034
0.01133051939266661
0.011361891780418512
0.011394112070542087
0.011426332360665661
0.011457704748417563
0.011489077136169465
0.011519601621549694
0.01154927820455825
0.011578106885195134
0.011606087663460342
0.011633220539353879
0.01165865761050407
0.011682398876910914
0.011705292240946087
0.011726489800237912
0.011745991554786391
0.011763797504591524
0.011779907649653313
0.011795169892343426
0.011808736330290195
0.011822302768236963
0.011834173401440386
0.011845196132272135
0.011856218863103883
0.011866393691563962
0.011876568520024037
0.011885895446112441
0.011896070274572516
0.011906245103032592
0.011915572029120997
0.011925746857581071
0.011936769588412822
0.01194779231924457
0.011958815050076321
0.011970685683279742
0.011983404218854838
0.011996122754429933
0.012010537094748376
0.012024951435066817
0.01204021367775693
0.01205717172519039
0.01207412977262385
0.012091935722428985
0.012110589574605791
0.01213009132915427
0.012150440986074424
0.012171638545366249
0.012193684007029748
0.01221657737106492
0.012240318637471765
0.01226490780625028
0.0122894969750288
0.012315781948550663
0.012342066922072526
0.012369199797966064
0.012397180576231272
0.012425161354496483
0.012453142132761693
0.012481970813398576
0.012510799494035458
0.012538780272300667
0.012567608952937551
0.012596437633574433
0.012625266314211316
0.012654094994848198
0.012682923675485082
0.012710904453750291
0.012738885232015502
0.012766018107909038
0.012793150983802576
0.012820283859696111
0.012846568833217975
0.012872005904368166
0.012896595073146683
0.012920336339553529
0.012944077605960372
0.01296612306762387
0.012987320626915697
0.013007670283835851
0.01302717203838433
0.013045825890561137
0.013062783937994597
0.013078894083056382
0.013093308423374824
0.013106874861321593
0.013117897592153344
0.01312807242061342
0.013135703541958477
0.013142486760931861
0.013146726272790227
0.013150117882276918
0.01315096578464859
0.013149269979905245
0.013146726272790227
0.013141638858560185
0.013134855639586804
0.0131255287134984
0.01311450598266665
0.013100939544719884
0.013085677302029768
0.013067871352224635
0.013049217500047828
0.013028867843127677
0.013006822381464176
0.01298308111505733
0.012959339848650489
0.012933054875128623
0.01290676990160676
0.012879637025713224
0.012851656247448015
0.012823675469182803
0.012793998886174248
0.012765170205537366
0.01273549362252881
0.012704969137148579
0.012675292554140025
0.012644768068759795
0.01261509148575124
0.01258456700037101
0.012554890417362456
0.012524365931982227
0.01249468934897367
0.012464164863593441
0.012434488280584886
0.01240481169757633
0.0123742872121961
0.012343762726815873
0.012313238241435643
0.012282713756055415
0.012251341368303513
0.012219968980551612
0.01218859659279971
0.012156376302676134
0.012123308110180886
0.012089392015313965
0.012055475920447044
0.01202071192320845
0.011985100023598183
0.01194779231924457
0.011910484614890957
0.011872329008165672
0.011833325499068712
0.01179347408760008
0.011752774773759776
0.011711227557547797
0.011668832438964145
0.011625589418008822
0.011581498494681824
0.011537407571354828
0.011492468745656157
0.011447529919957487
0.011401743191887144
0.011355108561445127
0.011309321833374785
0.011262687202932768
0.011216052572490752
0.011170265844420407
0.01112363121397839
0.011077844485908048
0.011032057757837705
0.010987118932139035
0.010942180106440364
0.010898089183113368
0.010854846162158044
0.01081160314120272
0.010769208022619067
0.01072766080640709
0.010686961492566784
0.01064626217872648
0.010606410767257848
0.01056740725816089
0.01052840374906393
0.010490248142338643
0.010452092535613359
0.010414784831259745
0.010377477126906131
0.010340169422552519
0.010303709620570579
0.010266401916216965
0.010229942114235027
0.010192634409881413
0.010156174607899473
0.010119714805917533
0.010083255003935592
0.010046795201953652
0.010011183302343386
0.009975571402733118
0.00993995950312285
0.009905195505884257
0.009871279411017337
0.009838211218522089
0.009805990928398515
0.00977377063827494
0.009743246152894711
0.009712721667514482
0.009683045084505926
0.009655064306240715
0.009627083527975507
0.00959995065208197
0.009573665678560106
0.009548228607409915
0.009523639438631397
0.009499898172224552
0.009476156905817707
0.00945411144415421
0.009432913884862382
0.009411716325570559
0.009391366668650406
0.009372712816473599
0.009354058964296794
0.009336253014491659
0.0093192949670582
0.009303184821996411
0.009287922579306298
0.009273508238987855
0.00926078970341276
0.009248919070209338
0.009238744241749261
0.009229417315660859
0.009221786194315802
0.00921585087771409
0.00921076346348405
0.009208219756369032
0.009206523951625686
0.009206523951625686
0.009209067658740706
0.009212459268227398
0.009217546682457436
0.00922432990143082
0.009232808925147551
0.0092438316559793
0.009255702289182722
0.009270116629501163
0.00928622677456295
0.009304032724368083
0.009323534478916564
0.009345579940580063
0.009369321206986907
0.009394758278137098
0.009421891154030634
0.009451567737039191
0.009482940124791093
0.00951600831728634
0.009550772314524933
0.009587232116506875
0.00962538772323216
0.009665239134700793
0.00970678635091277
0.009750029371868094
0.009794968197566764
0.009841602828008781
0.009889933263194144
0.009939111600751178
0.009990833645423233
0.01004340359246696
0.010098517246625707
0.010154478803156126
0.010212984066801566
0.010273185135190351
0.010334234105950807
0.010397826783826284
0.010463115266445108
0.010530099553807275
0.010598779645912791
0.010669155542761651
0.010740379341982185
0.010813298945946065
0.010887914354653291
0.01096337766573219
0.011040536781554436
0.011117695897376682
0.011195702915570599
0.01127455783613619
0.011354260659073453
0.01143396348201072
0.011513666304947982
0.011593369127885247
0.011673071950822511
0.011752774773759776
0.011832477596697038
0.011912180419634304
0.011991883242571567
0.012071586065508831
0.012150440986074424
0.012229295906640014
0.012308150827205605
0.012387005747771197
0.012465012765965115
0.012543019784159034
0.012620178899981278
0.01269649011343185
0.012772801326882422
0.012848264637961323
0.012922880046668547
0.012997495455375771
0.013070415059339653
0.013142486760931861
0.013212862657780721
0.013282390652257909
0.013351070744363425
0.01341805503172559
0.013483343514344416
0.01354608828984822
0.013607985162980351
0.01366733832899746
0.013724147787899555
0.013778413539686627
0.013829287681987011
0.013877618117172372
0.013921709040499369
0.013961560451968003
0.013997172351578267
0.01402854473933017
0.014055677615223708
0.014076875174515533
0.014093833221948994
0.014105703855152417
0.014112487074125797
0.014114182878869145
0.014111639171754125
0.014104855952780741
0.014092985319577318
0.014076027272143857
0.014055677615223708
0.01403108844644519
0.014003107668179979
0.013970887378056405
0.013935275478446137
0.013895424066977505
0.013853028948393853
0.01380724222032351
0.013759759687509822
0.013708885545209439
0.013656315598165714
0.013602049846378639
0.013545240387476546
0.01348758302620278
0.013429077762557343
0.013368028791796886
0.013306979821036426
0.013245082947904295
0.01318149027002882
0.013117897592153344
0.013052609109534518
0.012987320626915697
0.0129211842419252
0.012853352052191359
0.012785519862457519
0.012717687672723675
0.012648159678246488
0.0125786316837693
0.01250825578692044
0.012437879890071578
0.012366656090851044
0.01229543229163051
0.012224208492409976
0.012152136790817768
0.012080065089225562
0.012008841290005028
0.011936769588412822
0.011865545789192288
0.011794321989971754
0.011723946093122892
0.01165357019627403
0.011584042201796844
0.011515362109691328
0.011447529919957487
0.011381393534966991
0.011316105052348169
0.011251664472101018
0.011189767598968886
0.01112871862820843
0.011070213364562992
0.0110134039056609
0.010958290251502153
0.010904872402086752
0.010854846162158044
0.010806515726972683
0.010759881096530666
0.010716638075575342
0.010675090859363363
0.010636087350266403
0.010600475450656137
0.010566559355789215
0.010536034870408986
0.010507206189772104
0.010481769118621913
0.010458875754586741
0.010439374000038262
0.01042156805023313
0.01040800161228636
0.010396130979082938
0.010386804052994535
0.010380868736392823
0.010377477126906131
0.010376629224534459
0.010378325029277805
0.010382564541136171
0.010390195662481228
0.01039952258856963
0.010411393221773053
0.010426655464463166
0.010443613511896628
0.010463115266445108
0.010486008630480279
0.010510597799258796
0.010537730675152334
0.01056740725816089
0.010598779645912791
0.010633543643151385
0.010669155542761651
0.010708159051858611
0.010748858365698916
0.01079210138665424
0.01083704021235291
0.0108845227451666
0.010933701082723634
0.010984575225024017
0.011037993074439416
0.011093106728598163
0.011149068285128584
0.011207573548774021
0.011267774617162805
0.011329671490294936
0.01139241626579874
0.011456856846045891
0.011522145328664713
0.011589129616026882
0.011656113903389052
0.011724793995494566
0.01179347408760008
0.011862154179705596
0.011931682174182784
0.012000362266288297
0.012069042358393813
0.012137722450499327
0.01220555464023317
0.012272538927595339
0.012338675312585834
0.012403115892832984
0.012465860668336787
0.012526909639097245
0.012586262805114358
0.012642224361644777
0.01269649011343185
0.012748212158103903
0.012796542593289268
0.012841481418987936
0.012882180732828243
0.012919488437181855
0.012952556629677104
0.012982233212685658
0.013005974479092504
0.013026324136012655
0.013040738476331096
0.013050913304791174
0.013055152816649538
0.013054304914277866
0.013047521695304482
0.01303565106210106
0.013016997209924254
0.012992408041145735
0.012961883555765507
0.012924575851411893
0.012881332830456569
0.012832154492899534
0.012776192936369115
0.012713448160865311
0.01264307226401645
0.012566761050565877
0.012482818715770248
0.012391245259629561
0.012292888584515492
0.012186052885684692
0.012071586065508831
0.011949488123987917
0.011819759061121945
0.011681550974539242
0.011535711766611481
0.011381393534966991
0.011219444181977444
0.011049863707642838
0.01087095630721983
0.010683569883080092
0.010487704435223625
0.010282512061278752
0.010068840663617152
0.009844994437495473
0.009612669187657064
0.009369321206986907
0.009116646300228346
0.008853796565009708
0.00857992409895932
0.008296300755634695
0.008001400310766819
0.007695561925304358
0.0073784464382986486
0.007049884269275351
0.006709790627997302
0.006358080724227332
0.00599450018725394
0.005618964226839958
0.005231557633222554
0.004832110825927392
0.004420793385428809
0.003997605311726803
0.0035628009755328768
0.0031165499573213643
0.0026589370473294334
0.002190301406505754
0.0017108126153246592
0.0012206402542604842
0.0007201913164516325
0.00020969473553845538
0.0
0.0
0.0
0.0
0.0
0.0
0.0
0.0
0.0
0.0
0.0
0.0
0.0
0.0
0.0
0.0
0.0
0.0
0.0
0.0
0.0
0.0
0.0
0.0
0.0
0.0
0.0
0.0
0.0
0.0
0.0
0.0
0.0
0.0
0.0
0.0
0.0
0.0
0.0
0.0
0.0
0.0
0.0
0.0
0.0
0.0
0.0
0.0
0.0
0.0
0.0
0.0
0.0
0.0
0.0
0.0
0.0
0.0
0.0
0.0
0.0
0.0
0.0
0.0
0.0
0.0
0.0
0.0
0.0
0.00040818020172339337
0.002748729908489607
0.005234779662234911
0.007870484184580502
0.010659828616673247
0.013607137260608677
0.01671554735516198
0.019990146314563195
0.02343517365067069
0.02705317307059948
0.030849231988579605
0.03482589411172608
0.03898824685426896
0.043339681825694906
0.04788359063549064
0.05262336489314284
0.05756324411050988
0.06270577199470677
0.06805434015522019
0.07361318810390853
0.07938401164551513
0.08537528980375671
0.0915734561406865
0.09800055611796803
0.10465658973560127
0.11153307796986948
0.11863849984448942
0.12597285535946107
0.13353614451478443
0.14133684633417623
0.1493749608176365
0.1576420089414485
0.16615494875304562
0.1748968222049945
0.1838676292972951
0.19308432807738085
0.20252996049781832
0.21221300558232428
0.2221249843071819
0.23226589667239123
0.24263574267795232
0.2532345223238651
0.26404527756269613
0.2750764874181622
0.28631967286654647
0.2977663548841323
0.3094165334709197
0.32126172960319177
0.333293464257232
0.3455032584093235
0.3578911120594664
0.37044006716022715
0.383141644687889
0.3959958446424521
0.40896875092904933
0.42207732159511424
0.4352876405457799
0.4485912287573297
0.46197960720604675
0.4754358178444976
0.4889429026252488
0.502483903500867
0.5160418624239187
0.5295913423232536
0.5431153851514383
0.5565970328610393
0.5700193274046234
0.5833398736636066
0.596558671637989
0.6096418052329038
0.6225553583534839
0.6352908519760126
0.6478058909819064
0.6600919963474486
0.6720982939303386
0.6838163047068598
0.6952036335584285
0.7062433224376112
0.716876018178391
0.7270932417570509
0.7368525980550075
0.7461116919536768
0.7548366073581922
0.7629934281736868
0.7705397592815766
0.7774332055632782
0.7836568089713583
0.7891766534109497
0.7939673018109022
0.7980202751474993
0.8013186153733073
0.8038623224883265
0.8056344384451231
0.8066349632436972
0.8068638968840489
0.8063212393661783
0.8050239487375185
0.8029805040217866
0.8002163422901324
0.7967569006137065
0.7926276160636588
0.7878624047348565
0.7824867036984495
0.7765259500255882
0.7700140598111394
0.7629679911025365
0.7554131809709299
0.747392024534903
0.7389045217944561
0.7300015468918893
0.7206915788509196
0.7110170127901304
0.7009863277332385
0.6906249607513941
0.679975306963181
0.6690458453923157
0.6578620131099485
0.6464492471872297
0.6348329846953092
0.6230386627053375
0.6110747602410311
0.5989751933972571
0.5867569202214488
0.5744368987610399
0.5620405660871802
0.5495848802473035
0.5370867992888432
0.5245717602829493
0.5120397632296221
0.4995247242237282
0.48702664326526784
0.4745624784016743
0.46214070865666457
0.44978677110138865
0.4375006657358465
0.42529087158375495
0.4131743466925475
0.4011595700859408
0.3892550207876515
0.3774776568451132
0.36581899923460914
0.3543044850272895
0.34292563519943753
0.3317078868222034
0.3206427608718705
0.30974721539587213
0.29902125039420835
0.288473344890596
0.2781034988850349
0.26791171237752515
0.2579149434155002
0.24810471297524334
0.238497979104188
0.2290777837549007
0.21986108497481494
0.21084788276393068
0.20202969809853125
0.19342348902605006
0.18501229749905368
0.17681308156497555
0.1688173622000989
0.16103361842814057
0.15344489220166702
0.1460681415681117
0.13889488750375792
0.13191665098488894
0.12515039005893824
0.11857914667847232
0.11220292084349116
0.10603019157771156
0.10005247985741673
0.09426978568260673
0.08867363002956477
0.08327079611726428
0.07805365282436015
0.0730205043461091
0.06816880697539605
0.06349686490747769
0.05900128653286733
0.054681223949193274
0.05053243764459717
0.04655407971670734
0.042742758556037104
0.03909593045547143
0.03561189961026697
0.03228812231330873
0.02912120695510998
0.026107761926184057
0.023246939324159277
0.020534499637177277
0.017967899158123038
0.015544594179881535
0.013261193092966084
0.011115152190261662
0.009103927764653252
0.007223025933570984
0.00547083568250868
0.0038440501922168183
0.0023397865946317075
0.000954992441215326
0.0
0.0
0.0
0.0
0.0
0.0
0.0
0.0
0.0
0.0
0.0
0.0
0.0
0.0
0.0
0.0
0.0
0.0
0.0
0.0
0.0
0.0
0.0
0.0
0.0
0.0
0.0
0.0
0.00018545320673232364
0.0011145676675641892
0.0020831265467262834
0.003089247500953493
0.004131065145028137
0.005206629303495367
0.006314413752086172
0.00745255310558287
0.008619775510427955
0.009813622049743571
0.01103290566020938
0.01227593053708203
0.013541000875618183
0.014826420871074487
0.016130494718707596
0.017450678711402493
0.018786972849159176
0.020135985522490955
0.02149771673139783
0.022869622768764784
0.024250855732220137
0.025640567719392222
0.027037062925537692
0.028438645545913202
0.029845315580518745
0.03125537722461098
0.03266713467344656
0.034079740024653825
0.03549234537586108
0.03690240701995332
0.038310772859302206
0.03971405128442106
0.04111309019768155
0.04250619379434033
0.04389166626965405
0.04526865972125104
0.04663547834438795
0.04799212213906479
0.04933519949579486
0.05066471041457816
0.05197895909067135
0.05327624971933107
0.054556582300557335
0.0558182610296068
0.057060438004107775
0.058283113224060275
0.05948374298234928
0.06066232727897478
0.06181886611393678
0.06295251158486362
0.06406156788701192
0.06514688292275339
0.06620760878971635
0.06724289758552911
0.06825105350544834
0.06923207654947401
0.07018511881523451
0.07110848449798642
0.07200132569535811
0.07286364240734958
0.07369373882921747
0.0744916149609618
0.07525557499783918
0.07598477103747799
0.07667835517750651
0.0773354795155531
0.0779544482468744
0.07853526137147043
0.07907707098696949
0.0795798770933716
0.08004113598356172
0.08046169555991155
0.08084070792004938
0.08117902096634692
0.08147493889406081
0.08172930960556271
0.08194213310085263
0.08211340937993059
0.08224568214991158
0.08233725560605228
0.08239067345546768
0.08240508779578612
0.08238134652937926
0.0823202975586188
0.08222278878587641
0.0820879723087804
0.08191669602970245
0.08170895994864256
0.08146476406560073
0.08118495628294864
0.08086953660068627
0.08051850501881364
0.08013270943970241
0.0797121498633526
0.07925682628976419
0.07876843452368051
0.07824782246747328
0.07769668592588581
0.07711587280128979
0.07650792680080024
0.07587369582678881
0.07521572358637055
0.07453570588428877
0.07383703433003022
0.07311886102122317
0.07238457756735432
0.07163587977316704
0.07087276763866132
0.0700969369685805
0.06930923566529627
0.06851220743592362
0.0677050043780909
0.06689017019891313
0.0660677048983903
0.06523930428126576
0.06440666415228284
0.06357148031618493
0.06273460067534364
0.061898568936874045
0.061063385100776114
0.06023159287416488
0.059404888061783685
0.058582422761260855
0.05776843648445475
0.056962081328993705
0.0561667489043644
0.05538328711293853
0.054612543857087754
0.05385706284392709
0.05311769197582821
0.05239612705753447
0.05169321599141753
0.05101065458222075
0.05034844282994412
0.04970912444170266
0.0490918515151247
0.048499167757325254
0.04793022526593266
0.04738587194331858
0.04686780359422636
0.04637517231628434
0.045908826011864176
0.045469612583337544
0.045058379933076126
0.044673432256336576
0.04431646535786223
0.0439874792376531
0.04368647389570918
0.043413449332030465
0.043167557644245284
0.042949646734725316
0.04275971660347057
0.04259607144573767
0.04245871126152664
0.04234848395320914
0.04226369371604184
0.04220349264765306
0.04216872865041447
0.04215770591958271
0.042169576552786144
0.0422051884523964
0.04226284581367017
0.042341700734235765
0.04244175321409318
0.042562155350870746
0.04270290714456847
0.04286316069281467
0.04304122019086601
0.04323793354109415
0.043450757036384076
0.04368053857910747
0.043925582364520974
0.044185040490252916
0.04445806505393163
0.04474380815318543
0.04504057398327099
0.04534751464181663
0.04566463012882234
0.045989376737173106
0.046323450271612276
0.04666430702502483
0.04701279489978245
0.047368065993513446
0.047729272403846154
0.04809641413078057
0.04846864327194503
0.04884511192496785
0.04922582008984904
0.04961161566896027
0.05000080285755818
0.05039422955801447
0.05079189577032911
0.05119210568975878
0.05159570721867514
0.05200185245470652
0.05241054139785291
0.052821774048114334
0.05323470250311909
0.05365017466523888
0.054067342632102
0.05448705430608015
0.05490930968717331
0.055334108775381495
0.05576229947307638
0.05619303387788627
0.05662631198981119
0.05706298171122279
0.05750219513974942
0.057943104373019395
0.05838570941103271
0.05882916235141769
0.05927431109654603
0.05971945984167438
0.06016460858680271
0.06061060523430273
0.0610574497841744
0.06150429433404609
0.06195198678628945
0.06240137504327615
0.06285161120263452
0.06330269526436458
0.06375632303320963
0.0642099508020547
0.06466527437564312
0.06512229375397488
0.06558016103467831
0.0660397241201251
0.06650183091268688
0.06696648141236371
0.06743367561915554
0.0679034135330624
0.06837654305645595
0.06885136838459284
0.06932958532221642
0.06981034596695503
0.07029365031880865
0.07077949837777729
0.07126704224148928
0.07175712981231629
0.07224976109025831
0.07274324027057201
0.07323841525562906
0.07373443814305777
0.07422961312811482
0.07472309230842852
0.07521487568399887
0.07570326745008255
0.0761882676066795
0.07666733244667477
0.07714215777481166
0.07761274359109017
0.078077394090767
0.07853695717621378
0.07899058494505884
0.07943912529967388
0.0798817303376872
0.08031840005909881
0.08074828656153703
0.08117054194263018
0.0815851662023783
0.08199131143840968
0.08238812974835265
0.0827764690345789
0.08315463349234507
0.08352516682876618
0.08388722114147056
0.0842407964304582
0.08458589269572914
0.08492590154677002
0.08525658347172249
0.08557878637295824
0.08589251025047726
0.08619775510427954
0.08650299995808183
0.0867997657881674
0.0870795735708195
0.08735938135347159
0.08763071011240696
0.08789355984762559
0.0881479305591275
0.08838534322319595
0.08862275588726438
0.08885168952761612
0.0890721441442511
0.08928411973716935
0.08948761630637087
0.08968263385185567
0.08986917237362374
0.09004723187167507
0.09020833332229294
0.09036943477291082
0.09051357817609523
0.09064924255556292
0.09077642791131386
0.0908951342433481
0.09099688252794885
0.09109863081254962
0.09119190007343365
0.09127669031060096
0.09135300152405153
0.09142083371378536
0.09148018687980247
0.09153954004581959
0.09159041418811997
0.09164128833042035
0.091683683449004
0.09172607856758766
0.0917684736861713
0.09180238978103823
0.09184478489962189
0.09188718001820552
0.09192957513678918
0.09198044927908956
0.09203132342138995
0.09209067658740706
0.09215850877714091
0.09222634096687474
0.09231113120404205
0.09239592144120934
0.09249766972581011
0.0926078970341276
0.09272660336616181
0.09284530969819606
0.09298945310138046
0.09313359650456488
0.09328621893146602
0.09344732038208389
0.09362537988013524
0.09380343937818657
0.0939814988762379
0.0941765164217227
0.09437153396720749
0.09457503053640902
0.09477852710561055
0.09498202367481207
0.09519399926773031
0.09540597486064857
0.09561795045356684
0.09582992604648509
0.09604190163940335
0.0962538772323216
0.09645737380152312
0.09666087037072466
0.09686436693992619
0.09705938448541096
0.09724592300717903
0.09743246152894709
0.09760204200328171
0.09777162247761631
0.09793272392823418
0.0980768673314186
0.09822101073460301
0.09834819609035397
0.09847538144610492
0.09859408777813915
0.09870431508645665
0.09880606337105739
0.09890781165565816
0.09900955994025892
0.09910282920114297
0.09920457748574373
0.09929784674662775
0.09939959503122851
0.09950982233954601
0.09961157062414677
0.099730276956181
0.09984898328821522
0.09997616864396618
0.10012031204715058
0.100264455450335
0.10042555690095287
0.10060361639900421
0.10079015492077228
0.1009936514899738
0.10120562708289205
0.10143456072324378
0.10168045241102895
0.10193482312253085
0.10220615188146621
0.10249443868783505
0.1027912045179206
0.10310492839543962
0.10342713129667537
0.10375781322162786
0.10410545319401378
0.10446157219011648
0.10482617020993587
0.10519924725347199
0.10558080332072486
0.10596235938797771
0.10634391545523057
0.10673395054620018
0.10712398563716977
0.10750554170442261
0.10788709777167549
0.10826017481521161
0.108624772835031
0.10898937085485041
0.10933701082723633
0.10967617177590555
0.1099983746771413
0.11030361953094359
0.11059190633731243
0.11085475607253108
0.11110064776031624
0.11132110237695123
0.11151611992243601
0.11167722137305389
0.11180440672880484
0.11189767598968887
0.11196550817942273
0.1119909452505729
0.11198246622685618
0.1119315920845558
0.11185528087110523
0.11172809551535427
0.11157547308845313
0.11138045554296833
0.11114304287889988
0.11088019314368125
0.11058342731359569
0.11026122441235994
0.10990510541625727
0.10952354934900442
0.10911655621060136
0.10868412600104813
0.10822625872034468
0.1077514333922078
0.1072511709929207
0.10673395054620018
0.10619977205204617
0.10564015648674197
0.10506358287400432
0.1044700512138332
0.10386804052994535
0.10324059277490731
0.10259618697243582
0.1019433021462476
0.10126498024890916
0.1005697003041373
0.09986594133564868
0.09913674529600988
0.09839907023265435
0.09764443712186537
0.09686436693992619
0.09607581773427026
0.0952703104811809
0.09444784518065806
0.09360842183270177
0.09276051946102874
0.09189565904192226
0.09101384057538231
0.09012354308512564
0.0892162875474355
0.08830903200974537
0.08738481842462179
0.08646060483949818
0.08552791223065785
0.08459776332893254
0.0836625270129772
0.08272559489227851
0.08178781486920815
0.08085088274850946
0.07991564643255411
0.07898210592134211
0.07805026121487346
0.07712265602026318
0.0761975945327679
0.075276772557131
0.07436019009335247
0.0734478471414323
0.07254059160374215
0.07163757557791038
0.07074049486868034
0.06984765367130864
0.06895989988816698
0.06807808142162704
0.06720135036931713
0.06633055463360893
0.06546654211687412
0.06461016072148437
0.063760562545068
0.06291859548999669
0.06208595536101378
0.061262642158119274
0.06045035168605652
0.059649083944825515
0.05885968683679793
0.05808300826434544
0.05731989612983971
0.05657119833565243
0.05583606697941193
0.055116197865861534
0.05441074309262958
0.05372055056208773
0.05304392446949266
0.05238256061958771
0.05173561111000119
0.05110222803836144
0.050482411404668456
0.049875313306550574
0.049281781646379454
0.04869927271704009
0.04812863442090415
0.04756901885559995
0.04701957811875583
0.04648031221037179
0.04595037322807615
0.04542891326949724
0.04491593233463506
0.04441058252111794
0.04391116802420253
0.043416840941517154
0.04292675337069015
0.042440905311721504
0.04195675305749621
0.0414759924127576
0.04099692757276235
0.040519558537510436
0.040044733209373545
0.03957160368597999
0.03910186577207314
0.03863382366290963
0.038170021065604486
0.03771045798015771
0.037254286504197626
0.03680320244246758
0.03635720579496757
0.03591799236644094
0.03548471425451603
0.03505991516630784
0.03464444300418806
0.034239145670528354
0.03384571897007207
0.03346416290281921
0.03309702117588479
0.03274514169164048
0.032408524450086296
0.03208886525596557
0.03178701201164997
0.03150466052188285
0.031241810786664215
0.031001006513109077
0.030782247701217434
0.030586382253360966
0.03041595387665469
0.030270962571098604
0.030153104141436054
0.030063226490038713
0.030002177519278254
0.029972500936269703
0.029973348838641372
0.03000726493350829
0.030075097123242134
0.030177693310214568
0.03031590139679727
0.030491417187733585
0.030704240683023517
0.030957763492153755
0.03125113771275262
0.03158775495430681
0.03196761521681632
0.03239241430502451
0.03286384802367471
0.033381916372766926
0.03394916305941618
0.03456643598599414
0.03523458305487248
0.035955300070794546
0.036729434936132024
0.03755783555325656
0.038443045629283204
0.03938421726184026
0.04038389415804275
0.041442924220262356
0.04256300325324242
0.04374413125698294
0.044988851938598945
0.046298861102833766
0.047674158749687404
0.04911728858627489
0.050630794319711236
0.052213828047624776
0.05386978137950219
0.05559950221771516
0.05740468636700702
0.059286181729749456
0.061246532013057485
0.06328743302167446
0.06541058056034371
0.06761851833618025
0.0699146379586708
0.0723006352325587
0.07477990176733061
0.07735498127010158
0.08003011325272998
0.0828078414223308
0.08568901368127572
0.08869058807699823
0.09179391075732149
0.09501593976967898
0.09836515413778743
0.10182459581421335
0.10541970187010698
0.10913351425803483
0.11298299102543036
0.11695965314857683
0.12108045867490773
0.12532844955698957
0.12972058384225585
0.1342568615307065
0.13892880359862486
0.14375336809344436
0.1487220759914483
0.15384340631635335
0.15910888004444282
0.16452697619943343
0.1700976947813252
0.17582951481383483
0.1817054782495289
0.18774254313584082
0.19392375142533716
0.20026606116545137
0.20676947235618345
0.21342550597381668
0.22023416201835105
0.22719544048978657
0.23431782041184
0.24159282276079452
0.24901196851293347
0.25658373669197354
0.2643081272979148
0.27216818228332373
0.2801723806719171
0.2883122434399781
0.2965877705875068
0.3049989621145032
0.3135288599735338
0.32218594318831534
0.33095325371141443
0.3398392705665477
0.34882703570628176
0.3579165491306166
0.36709933181583543
0.37635842571450484
0.38570230985034154
0.3951140261759121
0.4045850956674998
0.41409856027767106
0.4236544200064261
0.43322723778261446
0.44281701360623643
0.4524067894298583
0.46197960720604675
0.47151850888736824
0.4810065364263894
0.4904352107993934
0.49977909493523015
0.5090297098101828
0.5181616183531013
0.5271663415402688
0.5360099632768184
0.5446755255153167
0.553154549232047
0.5614131183321421
0.5694427537918857
0.5772095395164106
0.5847134755057168
0.5919121666412208
0.5987971338992057
0.6053429402085215
0.6115411065454514
0.6173577168151282
0.6227758129701189
0.6277784369629896
0.6323486307463073
0.6364524782252047
0.6400645423285318
0.6431848230562885
0.6457709252898912
0.64782284902934
0.6493321152509179
0.6502902449309085
0.6507057170930283
0.650587010760994
0.6499426049585225
0.6487809787093305
0.6471106110371346
0.6449484599893684
0.6423030045897486
0.6391912028857086
0.6356300129246819
0.6316448717778187
0.6272357794451189
0.6224366520214496
0.6172644475542441
0.6117276450672194
0.6058601606552421
0.5996789523657456
0.5931924992224471
0.5864347173202131
0.5794225647064772
0.5721814784523895
0.5647284166053836
0.5570888162366098
0.5492796353935012
0.5413178321234915
0.5332203644740141
0.5250041904925026
0.5166947472501069
0.508300513770544
0.4998299690775305
0.49131702926593335
0.4827532153120358
0.4741724433107048
0.46557471326194033
0.45697698321317587
0.4483877321881282
0.43983239725794737
0.43131097842263344
0.4228234756821865
0.4143953261077567
0.40602652969934394
0.397725565480665
0.38949243345171997
0.3813440916599422
0.3732890191290485
0.3653102578116053
0.3574417238024797
0.34965798003052134
0.3419929425905972
0.3344211744115571
0.3269681125645512
0.3196252780258629
0.31239267079549193
0.30527029087343854
0.2982666172834194
0.2913731710017177
0.28459843105205024
0.277942397434417
0.2713881121013845
0.2649525331003863
0.2586271814077055
0.25240357799962554
0.24629868092357982
0.24029553213213478
0.23439413162529052
0.22860295842676379
0.2229135335128378
0.2173343359072293
0.21186536560993835
0.20650662262096484
0.2012581069403088
0.19611981856797028
0.19110023652766597
0.1861908817956792
0.18140023339572658
0.17672829132780823
0.1721750555919241
0.16773204716435747
0.16340774506882505
0.15921062832904356
0.1551237388975796
0.1511640348218666
0.14731455805447105
0.14359226664282648
0.13998868156321614
0.13650380281564
0.13313763040009813
0.12989016431659042
0.12676140456511698
0.12375983016939447
0.12087696210570618
0.11811280037405214
0.1154673449744323
0.11294907493056343
0.11054951121872877
0.10826865383892834
0.10610650279116214
0.10406305807543015
0.10212984066801566
0.10032380861635212
0.09862800387300606
0.09705090546169425
0.09558403435869992
0.09421891154030634
0.092972495053947
0.09182782685218842
0.09079338595874732
0.089860693349907
0.08902974902566745
0.08829207396231191
0.08765614718355715
0.08711348966568641
0.0866641014086997
0.08630798241259703
0.08603665365366167
0.08584163610817687
0.08573988782357611
0.0857059717287092
0.08575684587100957
0.0858755522030438
0.08607056974852859
0.08633341948374723
0.08665562238498298
0.08703717845223584
0.08747808768550581
0.08797835008479289
0.08852100760266363
0.08911453926283473
0.08975046604158951
0.09042030891521119
0.09113254690741654
0.09187022197077208
0.09264181312899451
0.09343884135836716
0.09425282763517326
0.09509225098312955
0.09594015335480258
0.09679653475019234
0.09766139516929882
0.0985262555884053
0.09939959503122851
0.100264455450335
0.10112931586944149
0.10198569726483123
0.10283359963650426
0.10367302298446056
0.10449548828498338
0.10530947456178949
0.10609802376744538
0.10686961492566785
0.10761576901274011
0.10833648602866218
0.10902328694971733
0.10967617177590555
0.11029514050722687
0.11088019314368125
0.11141437163783525
0.1119061550134056
0.11236402229410905
0.11276253640879537
0.11311865540489804
0.11343237928241706
0.11368674999391895
0.11389872558683721
0.11406830606117183
0.11418701239320606
0.11425484458293989
0.11428028165409009
0.11425484458293989
0.11418701239320606
0.11407678508488854
0.11391568363427068
0.11371218706506915
0.11346629537728396
0.11318648759463187
0.1128558056696794
0.11249968667357674
0.11209269353517366
0.11166026332562044
0.11118543799748354
0.11067669657447973
0.11013403905660898
0.10955746544387132
0.10894697573626677
0.10830256993379526
0.10763272706017357
0.10693744711540168
0.1062082510757629
0.1054536179649739
0.10467354778303471
0.10386804052994535
0.1030370962057058
0.10218919383403277
0.10131585439120955
0.10041707787723615
0.09950134331582929
0.09856865070698896
0.09761900005071517
0.09665239134700791
0.09566882459586722
0.09467677882100978
0.09366777499871888
0.09265877117642798
0.09163280930670362
0.09059836841326253
0.08954696947238798
0.08849557053151344
0.08743569256692216
0.08637581460233087
0.08529897859030615
0.08421535935930802
0.08312665271407985
0.08203031494750664
0.08092973766907505
0.07982322507404176
0.07871416877189344
0.07760256876263011
0.07649181665573844
0.07538191245121846
0.07427539985618517
0.07317312677301023
0.07207509320169367
0.07098469075172216
0.06990107152072404
0.06882593131344264
0.06776011803224966
0.06670447957951674
0.06566071175998725
0.0646279666712895
0.06360794011816687
0.06260063210061931
0.06160689052101852
0.0606267153793645
0.05966095457802894
0.0587096081170118
0.05777267599631311
0.05685185402067621
0.05594799009247276
0.05506193211407445
0.05419452798785296
0.053346625616179935
0.0525207687061704
0.05171695725782438
0.050936039173513525
0.05017886235560952
0.0494471226088557
0.04874081993325207
0.048060802231170305
0.047407917404982076
0.046782165454687386
0.046185242185029576
0.04561629969363697
0.045077033785252935
0.04456744445987745
0.044087531717510516
0.043638991362895486
0.04322182339603236
0.04283687571929281
0.0424849962350485
0.04216618494329945
0.04188213764878898
0.04163115854677377
0.041416639246740494
0.04123603604157414
0.04109104473601805
0.04098251323244391
0.04090874572610835
0.04087143802175474
0.04086889431463972
0.04090281040950664
0.0409731863063555
0.04107832620044296
0.04121907799414068
0.041395441687448666
0.041607417280366925
0.0418533089681521
0.04213396465317587
0.04244938433543824
0.04279872011256752
0.04318197198456373
0.04359998785379853
0.04405107191552858
0.044535224169753876
0.04505329251884609
0.045604429060433556
0.04618863379451627
0.04680505881872256
0.047453704133052416
0.04813456973750586
0.048845959827339525
0.04958787440255342
0.050360313463147545
0.05116242910675022
0.05199337343098979
0.05285229853349456
0.053737508609521194
0.05465069946381304
0.055588479486883405
0.05655000077636061
0.057536111234616334
0.05854341925216389
0.059571924829003274
0.060619932160391125
0.06168574544158411
0.06276851677021057
0.06386570243915546
0.06497645454604711
0.06609822938377052
0.06722933114758235
0.0683680640327392
0.06951188433212611
0.07065909624099972
0.07180885185698835
0.07295775957060528
0.07410412357710722
0.07524624807175077
0.07638158934742095
0.07750760369700273
0.07862259531575276
0.07972317259418435
0.08080763972755414
0.0818743009111188
0.0829206124377633
0.08394487850274432
0.08494285959420347
0.08591794732162744
0.08686759797790122
0.0877833325393081
0.08867363002956477
0.08953001142495452
0.09036095574919409
0.09114950495485
0.09191261708935572
0.09265029215271126
0.09334557209748313
0.09401541497110481
0.09465134174985959
0.09526183145746416
0.09583840507020182
0.09638954161178928
0.09690676205850983
0.0974070244577969
0.09787337076221707
0.09831427999548704
0.09872975215760683
0.09911978724857641
0.09949286429211254
0.09984050426449849
0.10016270716573424
0.10046795201953652
0.10075623882590536
0.10101908856112399
0.10127345927262589
0.10151087193669435
0.10173132655332932
0.1019433021462476
0.10214679871544911
0.10233333723721717
0.1025113967352685
0.10268945623331985
0.10285903670765445
0.10302013815827232
0.10318971863260694
0.1033508200832248
0.10351192153384267
0.10367302298446056
0.10384260345879517
0.1040206629568465
0.10419872245489784
0.10437678195294917
0.10457179949843395
0.10476681704391874
0.10497031361312027
0.10518228920603855
0.10540274382267353
0.10562319843930851
0.10585213207966022
0.10608954474372867
0.10632695740779713
0.10657284909558229
0.10681874078336748
0.10706463247115264
0.10731052415893783
0.10754793682300627
0.1077853494870747
0.10801428312742645
0.10823473774406143
0.10844671333697967
0.10864173088246448
0.10881979038051581
0.10898089183113367
0.10911655621060136
0.10923526254263559
0.10932005277980289
0.10937940594581999
0.10940484301697019
0.10938788496953675
0.10934548985095309
0.10925222059006903
0.10911655621060136
0.10893849671255001
0.10871804209591503
0.10844671333697967
0.10812451043574392
0.1077514333922078
0.10732748220637128
0.10685265687823438
0.10633543643151386
0.10576734184249292
0.10514837311117162
0.10447853023754992
0.10375781322162786
0.10299470108712214
0.10218071481031603
0.10132433341492628
0.10041707787723615
0.09946742722096236
0.09846690242238819
0.09743246152894709
0.09635562551692237
0.09523639438631397
0.0940917261845554
0.09290466286421316
0.09169216247272075
0.09044574598636139
0.08916541340513513
0.08786812277647539
0.08653691605294875
0.08518875128198865
0.08381684524462168
0.08242882906219295
0.08102809434418913
0.07961633689535354
0.0781969483251729
0.07677332024313388
0.07534799635635153
0.07392352037194086
0.07250328389938854
0.07108898274343795
0.06968316061120407
0.06828836120980195
0.06690712824634659
0.06554200542795303
0.06419384065699292
0.06286687344532464
0.06156110379294818
0.06027907540697857
0.05902333199453082
0.05779387355560494
0.05659324379731594
0.05542313852440716
0.05428525354162196
0.05318128465370369
0.05211207976302401
0.0510784867719546
0.05008304938761047
0.04912576760999162
0.04820833724384141
0.047331606191531504
0.04649727025780525
0.04570448154029098
0.04495493584373202
0.04424863316812839
0.04358726931822344
0.04296999639164547
0.042397662290766185
0.04187026701558556
0.04138865846847529
0.040951988747063676
0.04056110575372242
0.04021600948845149
0.03991669995125091
0.03966317714212068
0.03945459315868912
0.03929264380569957
0.03917563327840869
0.039103561576816485
0.03907558079855127
0.03909253884598474
0.039153587816745196
0.039257031906089306
0.039403719016388734
0.03959280124527182
0.039822582787995206
0.040093063644558904
0.04040339591259123
0.040753579592092186
0.04114191887831843
0.04156756586889829
0.042031368466203436
0.04252993506074717
0.043064113554901175
0.04363220814392211
0.0442325230230666
0.04486505819233468
0.045528117846982984
0.046220006182268174
0.04694072319819024
0.04768772518763417
0.048461012150599975
0.04925804037997262
0.05007796197338043
0.05091908112608007
0.05177970203332819
0.052658128890381434
0.05355436169723982
0.05446585674678832
0.05539176613665526
0.0563303940620973
0.05728089262074276
0.05823987020310495
0.05920817471155554
0.060183262438979514
0.06116258967826186
0.06214700433177424
0.06313311479002996
0.06412007315065736
0.0651061836089131
0.06609059826242547
0.06706992550170782
0.06804416532676011
0.06900992612809569
0.06996551210097118
0.07091007534301494
0.07184022424474025
0.07275341509903208
0.07364964790589047
0.07452383525108536
0.07537597713461675
0.07620268194699795
0.07700140598111394
0.07777130133459303
0.0785115201050636
0.0792186706830389
0.07989444887326229
0.08053715887099044
0.08114595277385167
0.08172083058184598
0.08226179229497337
0.08276799001086217
0.0832385758271407
0.08367354974380896
0.08407291176086695
0.08443750978068634
0.08476649590089548
0.08506156592623769
0.08532441566145633
0.08555334930180805
0.08574836684729284
0.08591794732162744
0.08605361170109513
0.08617231803312936
0.08625710827029666
0.08631646143631376
0.08635885655489742
0.0863842936260476
0.0863842936260476
0.08636733557861415
0.08633341948374723
0.08629102436516357
0.08623167119914647
0.08617231803312936
0.08609600681967877
0.08601969560622821
0.08594338439277764
0.08585859415561034
0.08577380391844304
0.08568901368127572
0.08561270246782517
0.08553639125437458
0.08546008004092402
0.08539224785119018
0.08533289468517306
0.08528202054287268
0.08523962542428903
0.08519723030570538
0.08517179323455519
0.08516331421083845
0.08515483518712172
0.08517179323455519
0.08519723030570538
0.08523962542428903
0.0852904995665894
0.08536681078003999
0.08545160101720728
0.08556182832552477
0.08568901368127572
0.08582467806074341
0.0859857795113613
0.08617231803312936
0.08636733557861415
0.08658779019524913
0.08681672383560085
0.08707109454710275
0.08734242330603813
0.08763071011240696
0.08793595496620923
0.08824967884372827
0.08858883979239747
0.0889364797647834
0.0893010777846028
0.08968263385185567
0.09007266894282527
0.09047966208122832
0.09090361326706482
0.09132756445290133
0.09177695270988803
0.09222634096687474
0.09268420824757817
0.09315903357571506
0.09363385890385195
0.09411716325570559
0.0946004676075592
0.09509225098312955
0.09558403435869992
0.09606733871055353
0.09655064306240717
0.09703394741426077
0.09750877274239768
0.0979666400231011
0.09842450730380455
0.09886541653707451
0.09929784674662775
0.09971331890874753
0.10012031204715058
0.10051034713812018
0.10088342418165631
0.1012480222014757
0.10158718315014492
0.10190938605138067
0.10221463090518296
0.1025113967352685
0.10278272549420388
0.1030370962057058
0.10327450886977424
0.10350344251012596
0.10370693907932749
0.10390195662481228
0.1040800161228636
0.10424959659719822
0.10440221902409935
0.10454636242728375
0.10467354778303471
0.10478377509135221
0.10488552337595297
0.104978792636837
0.10505510385028759
0.10511445701630469
0.10516533115860506
0.10519924725347199
0.10521620530090546
0.10522468432462219
0.10520772627718872
0.10518228920603855
0.10513141506373816
0.10507206189772103
0.10498727166055373
0.1048940023996697
0.10478377509135221
0.10464811071188454
0.10450396730870011
0.10434286585808225
0.1041648063600309
0.10397826783826285
0.10378325029277805
0.10357975372357653
0.10335929910694153
0.10313884449030654
0.10290143182623811
0.10266401916216966
0.10241812747438447
0.1021722357865993
0.1019178650750974
0.1016634943635955
0.10140912365209358
0.10115475294059167
0.10090038222908977
0.10063753249387113
0.10039164080608595
0.10013727009458405
0.09989137840679888
0.09964548671901369
0.09939959503122851
0.09917066139087681
0.09894172775052508
0.09872127313389009
0.09850929754097185
0.09829732194805359
0.09810230440256879
0.09791576588080073
0.09772922735903267
0.09755964688469805
0.09739854543408018
0.09725440203089576
0.09711025862771136
0.0969830732719604
0.09686436693992619
0.09676261865532541
0.09666087037072466
0.09658455915727408
0.09650824794382351
0.0964488947778064
0.09639802063550602
0.0963641045406391
0.09633018844577218
0.09631323039833871
0.09630475137462198
0.09630475137462198
0.09632170942205544
0.0963386674694889
0.0963641045406391
0.09639802063550602
0.0964488947778064
0.09650824794382351
0.09656760110984061
0.0966439123232912
0.0967287025604585
0.09683045084505926
0.09693219912966002
0.09705090546169425
0.09716961179372846
0.09730527617319615
0.09744941957638056
0.09760204200328171
0.09776314345389958
0.09793272392823418
0.09811078342628553
0.09829732194805359
0.09849233949353838
0.09870431508645665
0.09892476970309162
0.09915370334344334
0.09939111600751178
0.09963700769529697
0.09989137840679888
0.10016270716573424
0.10043403592466961
0.10072232273103844
0.10101060953740726
0.10131585439120955
0.10162957826872857
0.1019433021462476
0.10226550504748333
0.10259618697243582
0.1029268688973883
0.1032660298460575
0.10361366981844343
0.10395283076711265
0.1043004707394986
0.10463963168816781
0.104978792636837
0.10531795358550622
0.10565711453417542
0.10597931743541118
0.10630152033664693
0.10661524421416595
0.10691201004425151
0.10720029685062032
0.10748010463327244
0.10774295436849106
0.10798884605627625
0.10822625872034468
0.10844671333697967
0.1086502099061812
0.10884522745166599
0.10903176597343404
0.10920134644776866
0.10936244789838655
0.10951507032528768
0.10965073470475535
0.10977792006050631
0.10989662639254054
0.1099983746771413
0.11009164393802533
0.11016795515147591
0.11023578734120976
0.11028666148351014
0.11032057757837707
0.11033753562581051
0.11033753562581051
0.11032057757837707
0.11029514050722687
0.11024426636492649
0.11018491319890936
0.11010012296174208
0.11000685370085803
0.10989662639254054
0.1097694410367896
0.10963377665732191
0.10947267520670402
0.10929461570865269
0.1090995981631679
0.10889610159396637
0.10866716795361465
0.10842975528954621
0.1081753845780443
0.10790405581910893
0.10763272706017357
0.10733596123008801
0.10703919540000247
0.10672547152248345
0.10640326862124769
0.10606410767257848
0.10572494672390927
0.1053688277278066
0.1050042297079872
0.10462267364073434
0.10424111757348149
0.10385108248251189
0.10344408934410884
0.1030370962057058
0.10261314501986928
0.10218919383403277
0.1017482846007628
0.10129889634377609
0.10084102906307266
0.1003746827586525
0.09989137840679888
0.09939959503122851
0.09889933263194142
0.09838211218522089
0.09784793369106688
0.09730527617319615
0.09674566060789194
0.09617756601887104
0.09560099240613337
0.09500746074596225
0.09440545006207442
0.09380343937818657
0.09319294967058198
0.09257398093926067
0.09195501220793936
0.09132756445290133
0.09070011669786329
0.09007266894282527
0.08944522118778722
0.08882625245646592
0.08820728372514461
0.08760527304125676
0.08700326235736891
0.0864097306971978
0.08583315708446015
0.08526506249543922
0.08471731756333845
0.08418653067867113
0.08367439764618063
0.08318346217298195
0.0827137242590751
0.08226857551394676
0.08184716803522527
0.08145119762765396
0.08108151219360452
0.08073811173307695
0.08042269205081458
0.08013440524444575
0.07987409921634214
0.0796426218688754
0.07943997320204556
0.07926615321585258
0.07912116191029649
0.07900669509012063
0.07892105695058166
0.07886594329642291
0.07883965832290105
0.07884220203001607
0.07887442232013964
0.0789354712909001
0.07902365313755409
0.07914066366484497
0.07928395916565771
0.07945438754236399
0.07965110089259213
0.07987240341159879
0.08011829509938397
0.08038792805357599
0.08067960646943151
0.0809941782493222
0.08133079549087639
0.0816886102917224
0.08206847055423191
0.08247037627840494
0.0828926316594981
0.08333523669751142
0.08379903929481657
0.08428149574429851
0.08478260604595726
0.08529897859030615
0.08583315708446015
0.0863842936260476
0.08695238821506854
0.08752896182780619
0.08812249348797731
0.08872450417186516
0.08933499387946972
0.08994548358707431
0.09057293134211235
0.09120037909715037
0.09182782685218842
0.09245527460722645
0.09308272236226449
0.09371864914101927
0.09434609689605729
0.09496506562737861
0.09558403435869992
0.09618604504258775
0.0967880557264756
0.09737310836292999
0.09794120295195091
0.0985008185172551
0.09903499701140912
0.09954373843441293
0.10003552180998329
0.10050186811440345
0.10094277734767342
0.10134977048607648
0.10173132655332932
0.10207048750199854
0.10238421137951756
0.10266401916216966
0.10290143182623811
0.10309644937172291
0.10325755082234077
0.103376257154375
0.10345256836782557
0.10348648446269249
0.10347800543897576
0.10342713129667537
0.10333386203579134
0.10318971863260694
0.10300318011083887
0.10277424647048715
0.10249443868783505
0.10218071481031603
0.10181611679049664
0.10140912365209358
0.10096821441882362
0.10049338909068671
0.09997616864396618
0.09943351112609543
0.09884845848964105
0.09822948975831974
0.09758508395584825
0.09691524108222656
0.09621996113745468
0.09549076509781589
0.09475309003446035
0.09399845692367137
0.0932268657654489
0.09244679558350972
0.09165824637785382
0.09087817619591464
0.09009810601397546
0.08931803583203628
0.08855492369753054
0.08780029058674156
0.08706261552338602
0.08635037753118069
0.08565509758640881
0.08498525471278712
0.08434848003166068
0.08374307773828614
0.08317413524689354
0.0826441962645979
0.08215665240088592
0.08171574316761594
0.08132316436953133
0.08098230761611877
0.08069571661449329
0.08046508716939824
0.08029465879269194
0.08018527938674613
0.08013949265867579
0.08015814651085261
0.08024463255276325
0.0803997986867794
0.08062449281527277
0.08092041074298664
0.08128840037229274
0.08172930960556271
0.08224483424753991
0.08283497429822434
0.08349972975761598
0.0842407964304582
0.08506156592623769
0.08595186341649437
0.08691847212020162
0.08796139203735943
0.08908910219168455
0.09029312355946024
0.0915734561406865
0.09293857895908009
0.09438001299092422
0.09590623725993566
0.09751725176611441
0.09921305650946045
0.1009936514899738
0.10286751573137118
0.1048346492336526
0.10688657297310131
0.1090402449971508
0.11129566530580103
0.11366131292276878
0.11612022980062053
0.11869785301050652
0.12139418255242673
0.12420073940266443
0.12712600258493637
0.13016997209924253
0.13334960599301635
0.13665642524254115
0.14009890887153362
0.1436770568799938
0.14739086926792164
0.15125730408275062
0.1552594032770473
0.1594141248982451
0.16372146894634407
0.16818143542134417
0.17280250334696212
0.177584672723198
0.18253642257376845
0.1876577528986735
0.1929571427216299
0.19844307106635437
0.2040985798854134
0.20994910624995727
0.21599465015998592
0.22222673259178266
0.22866231159278091
0.23529290813926398
0.24212700125494854
0.24916459093983462
0.2564226352413557
0.2638841761120783
0.27156617159943586
0.27946014267971175
0.2875745683766226
0.2959094486901684
0.3044563045966325
0.31323209414344827
0.3222198592831823
0.33142807903955135
0.34085675341255534
0.35048892435476087
0.3603330708898847
0.3703891930179267
0.38064881171517034
0.3911034479578987
0.4017531017461119
0.4125892940560931
0.42361202488784244
0.43480433619392633
0.44616622797434485
0.4576892212053812
0.469356357839602
0.4811591588532905
0.4930891452227299
0.5051293589004868
0.5172628418391279
0.5294895940386528
0.5417841784279117
0.5541381159831876
0.5665174906096138
0.5789223023071901
0.5913271140047665
0.6037149676549093
0.6160519471627518
0.6283380525282939
0.6405393676566687
0.652630455476726
0.6646028369647491
0.6764225960258711
0.6880727746126584
0.699527935653961
0.7107626420786285
0.7217514568155108
0.7324774218171746
0.7429066209887528
0.7530136172590952
0.7627644945333351
0.7721507737877553
0.781121580880056
0.7896514787390866
0.7977235093174138
0.8053037565201706
0.8123498252287734
0.818836278372072
0.8247291998551995
0.8300031526070057
0.8346411785800573
0.8386263197269204
0.8419500970238787
0.8446040314472151
0.8466050810443635
0.8479023716730233
0.848665483807529
0.848665483807529
0.8480719521473578
0.846842493708432
0.8449855875144681
0.8425097125891828
0.8394318269800097
0.835777367758099
0.831563292970884
0.8268065606657984
0.8215495659614257
0.8158177459289161
0.8096365376394198
0.8030313781640869
0.7960361835977844
0.7886763910116626
0.7809774374768715
0.7729647600645615
0.7646553168221658
0.7560745448208349
0.747239402108002
0.7381753257548173
0.7288992738087144
0.71941972529341
0.7097536382563375
0.6999179707449306
0.6899212017829056
0.6797887684414129
0.6695206707204526
0.6591338666674581
0.648636835306146
0.6380380556602332
0.6273544857771531
0.6165861256569057
0.6057499333469245
0.5948459088472094
0.583891010205194
0.5729021954683116
0.5618794646365622
0.5508312967336628
0.5397746498070466
0.5287180028804304
0.5176698349775308
0.5066386251220649
0.49562437331403225
0.4846609956483001
0.47373153407743485
0.4628699046963034
0.45206762848118903
0.44135014250324206
0.43070896773874556
0.4201610622351332
0.40971490501612157
0.3993704960817107
0.38914479347933406
0.37902931818527485
0.3690410282469666
0.3591884026881261
0.34947144150875326
0.33989862373256485
0.3304699493595608
0.32119389741345794
0.3120704678942562
0.30310813982567236
0.29431539223142306
0.28568374608779173
0.27721320139477823
0.26892071619981606
0.26078933245547176
0.2528360082091788
0.2450437854135037
0.23742962211587998
0.22998503929259084
0.222718515967353
0.2156215731164498
0.20871116878731466
0.20197034493251412
0.19540758057576496
0.18902287571706708
0.18281623035642056
0.17678764449382534
0.17093711812928147
0.16526465126278894
0.15977024389434777
0.15445389602395793
0.14930712862790266
0.14433842072989875
0.13954777232994617
0.13491822538061146
0.13046673792932809
0.1261848309523793
0.12207250444976515
0.11812127939776887
0.11433115579639046
0.11071061266934663
0.10724269196920398
0.1039358727196792
0.10078167589705554
0.09778010150133304
0.09492267050879495
0.09221786194315801
0.08965719678070548
0.0872237169740039
0.08493438057048673
0.08277816483932225
0.0807491344639087
0.07884559363950276
0.07706415075661774
0.07540056630339526
0.073853144475092
0.0724167978574779
0.07108983064580962
0.06986969913297214
0.0687521638071071
0.06773468096109946
0.06681470688783424
0.0659888499778247
0.0652537186215842
0.06460676911199768
0.06404545774195014
0.06356554499958321
0.06316618298252522
0.06284398008128946
0.06259469678401759
0.06241663728596626
0.06230640997764877
0.06226062324957843
0.06227673339464022
0.06235050090097577
0.06248022996384174
0.06266252897375144
0.06289485422358986
0.0631729662014986
0.06349601700510601
0.0638614629272971
0.06426506445621345
0.06470512578711175
0.06517995111524864
0.06568699673350911
0.06622287103240647
0.0667875740119407
0.06737686616025344
0.06799159537971639
0.06862837006084284
0.0692863423012611
0.06996381629622785
0.07066079204574306
0.07137472584269176
0.07210476978470222
0.07284922806703113
0.07360640488493515
0.07437630023841425
0.07515637042035343
0.07594746333312437
0.07674618736724036
0.07755508622981641
0.07837161621373753
0.0791966252213754
0.08003096115510165
0.08087377611254463
0.08172676589844768
0.08258908261043917
0.08346242205326238
0.08434678422691733
0.08523962542428903
0.08614688096197917
0.08707109454710275
0.08800378715594308
0.08894495878850014
0.08990308846849066
0.09086969717219791
0.09184478489962189
0.09283683067447931
0.09384583449677021
0.09486331734277785
0.0958892792125022
0.09693219912966002
0.0979920770942513
0.09906043408255931
0.10014574911830078
0.10123954317775898
0.10234181626093392
0.1034610473915423
0.10458875754586741
0.10571646770019254
0.10686113590195113
0.10800580410370969
0.109158951329185
0.11031209855466031
0.1114567667564189
0.11260991398189421
0.11375458218365281
0.11489925038541139
0.11603543956345323
0.11717162874149509
0.11829085987210347
0.11941009100271185
0.12052084310960352
0.12162311619277845
0.12270843122851993
0.12378526724054467
0.1248621032525694
0.1259219812171607
0.12698185918175198
0.12803325812262653
0.12907617803978433
0.1301106189332254
0.1311365808029498
0.1321540636489574
0.1331630674712483
0.13415511324610574
0.1351471590209632
0.13611376772467043
0.13707189740466094
0.13802154806093472
0.13894576164605832
0.13985301718374846
0.14074331467400514
0.1416081750931116
0.14244759844106789
0.143261584717874
0.14405013392352992
0.1448047670343189
0.145525484050241
0.14621228497129612
0.14685669077376765
0.14745870145765547
0.14801831702295967
0.14853553746968023
0.1490103627978171
0.14943431398365362
0.14980739102718973
0.15013807295214224
0.15041788073479434
0.15064681437514604
0.1508333528969141
0.15096053825266506
0.15104532848983235
0.1510792445846993
0.15107076556098256
0.1510029333712487
0.15089270606293123
0.15074008363603006
0.15054506609054527
0.15029917440276008
0.150019366620108
0.14969716371887226
0.14933256569905284
0.1489340515843665
0.1485016213748133
0.14803527507039313
0.14752653364738932
0.1469923551532353
0.14643273958793113
0.14583920792776
0.1452202391964387
0.14457583339396718
0.1439059905203455
0.14321071057557364
0.14250695160708501
0.1417777555674462
0.1410400805040907
0.14027696836958495
0.13951385623507925
0.13873378605314007
0.1379537158712009
0.13716516666554496
0.13636813843617232
0.13557958923051644
0.13478256100114377
0.1340024908192046
0.1332139416135487
0.13244235045532624
0.1316792383208205
0.13092460521003152
0.1301954091703927
0.12947469215447066
0.12877093318598204
0.12809261128864363
0.12743972646245538
0.12681227870741735
0.12621026802352953
0.1256421734345086
0.12509951591663784
0.12458229546991731
0.12409899111806369
0.12364960286107698
0.12322565167524047
0.12283561658427086
0.12247101856445147
0.122140336639499
0.12183509178569671
0.12155528400304462
0.1213009132915427
0.12108045867490773
0.12087696210570618
0.12069890260765485
0.120537801157037
0.12041061580128604
0.12030038849296854
0.1202071192320845
0.12013928704235068
0.12009689192376702
0.12007993387633355
0.12007993387633355
0.12009689192376702
0.12014776606606739
0.1202071192320845
0.12030038849296854
0.12041061580128604
0.12054628018075372
0.12069890260765485
0.12088544112942294
0.12108893769862444
0.12131787133897616
0.1215807210741948
0.12186052885684691
0.12216577371064918
0.12249645563560167
0.12285257463170435
0.1232341306989572
0.12364112383736026
0.12406507502319676
0.12451446328018345
0.12498080958460363
0.12548107198389072
0.12598981340689452
0.12652399190104854
0.127075128442636
0.12764322303165693
0.12822827566811132
0.1288218073282824
0.129432297035887
0.1300512657672083
0.13067871352224633
0.13131464030100112
0.1319505670797559
0.13259497288222738
0.1332478577084156
0.13390074253460385
0.13455362736079204
0.1352065121869803
0.13585939701316851
0.13651228183935676
0.13715668764182823
0.13780109344429975
0.1384370202230545
0.13907294700180928
0.13969191573313058
0.14030240544073516
0.140904416124623
0.14149794778479413
0.14206604237381507
0.14262565793911924
0.14316831545699
0.14370249395114398
0.1442112353741478
0.14470301874971814
0.14518632310157176
0.1456441903822752
0.1460935786392619
0.14652600884881514
0.14694148101093493
0.147348474149338
0.14773850924030757
0.14812006530756042
0.14849314235109656
0.14884926134719925
0.14919690131958516
0.14954454129197112
0.14988370224064032
0.1502143841655928
0.15053658706682857
0.1508587899680643
0.1511725138455833
0.15148623772310232
0.1517914825769046
0.1520882484069902
0.15238501423707573
0.15267330104344456
0.15295310882609667
0.15322443758503204
0.15348728732025066
0.15374165803175258
0.15398754971953774
0.1542249623836062
0.15445389602395793
0.15466587161687617
0.15487784720979442
0.15508134377899596
0.15528484034819748
0.15547985789368227
0.15566639641545033
0.15586141396093514
0.1560479524827032
0.156242970028188
0.15642950854995605
0.1566330051191576
0.1568365016883591
0.15704847728127735
0.15726045287419563
0.15748938651454733
0.1577267991786158
0.15798116989011768
0.1582355406016196
0.15850686936055497
0.1587951561669238
0.15908344297329263
0.15938868782709492
0.15970241170461394
0.16002461460584966
0.16035529653080216
0.16069445747947136
0.1610420974518573
0.1614066954716767
0.16176281446777938
0.16213589151131552
0.16250896855485164
0.1628820455983878
0.1632551226419239
0.1636197206617433
0.1639843186815627
0.16434043767766537
0.16467959862633458
0.16501028055128705
0.16532400442880607
0.1656122912351749
0.16587514097039355
0.16612103265817874
0.16633300825109695
0.16650258872543158
0.166646732128616
0.16674848041321674
0.16680783357923387
0.16682479162666733
0.16679935455551714
0.16672304334206656
0.1665958579863156
0.16642627751198102
0.16619734387162927
0.16592601511269392
0.16560381221145817
0.1652222561442053
0.1647983049583688
0.1643150006065152
0.1637893011360779
0.16321272752334023
0.16259375879201893
0.16192391591839725
0.16120319890247517
0.1604485657916862
0.15965153756231354
0.15881211421435726
0.15793877477153404
0.1570230402101272
0.1560733895538534
0.1550898228027127
0.15407233995670505
0.15302094101583052
0.15193562598008903
0.15081639484948065
0.14967172664772208
0.1485016213748133
0.14730607903075432
0.14607662059182844
0.1448302041054691
0.14355835054795957
0.14226953894301655
0.1409637692906401
0.13964104159083018
0.13830983486730355
0.1369786281437769
0.1356304633728168
0.13429077762557343
0.13295109187833004
0.13161140613108666
0.13028019940756003
0.12894899268403337
0.1276347440079402
0.12633745337928046
0.12504016275062074
0.12376830919311119
0.12251341368303513
0.1212754762203925
0.12005449680518336
0.11885047543740768
0.11767189114078216
0.11652722293902358
0.11539951278469847
0.11429723970152353
0.11322888271321552
0.11219444181977445
0.11118543799748354
0.11021882929377629
0.10929461570865269
0.10840431821839601
0.10754793682300627
0.1067424295699169
0.10597931743541118
0.10525860041948909
0.10458875754586741
0.10396130979082938
0.10338473617809173
0.10285903670765445
0.10239269040323429
0.10196873921739778
0.10160414119757838
0.10129041732005936
0.10102756758484072
0.1008240710156392
0.10067144858873804
0.1005697003041373
0.10052730518555364
0.10053578420927037
0.10060361639900421
0.1007138437073217
0.10088342418165631
0.1011038787982913
0.10137520755722666
0.10169741045846241
0.10207048750199854
0.10248595966411832
0.10295230596853848
0.1034610473915423
0.10401218393312975
0.10459723656958415
0.10523316334833892
0.10589452719824388
0.10658980714301575
0.10731900318265455
0.10808211531716028
0.10886218549909946
0.10966769275218884
0.11049015805271165
0.11132110237695123
0.11216900474862425
0.11302538614401399
0.11389024656312048
0.11474662795851023
0.11561148837761673
0.11645939074928975
0.11729881409724605
0.11812127939776887
0.11892678665085823
0.11971533585651414
0.12046996896730314
0.12119916500694196
0.12189444495171381
0.12254732977790204
0.12316629850922337
0.12375135114567774
0.12428552963983175
0.12478579203911883
0.12523518029610556
0.1256421734345086
0.12599829243061125
0.126320495331847
0.1266003031144991
0.12683771577856756
0.12703273332405235
0.12719383477467022
0.12732102013042118
0.12741428939130522
0.12747364255732233
0.1274990796284725
0.12749060060475575
0.12745668450988887
0.12739733134387174
0.1273040620829877
0.12719383477467022
0.12705817039520254
0.1269055479683014
0.12674444651768352
0.12655790799591543
0.12636289045043064
0.12615939388122913
0.12594741828831088
0.1257269636716759
0.12549803003132415
0.12526909639097245
0.125031683726904
0.1248027500865523
0.12456533742248384
0.12433640378213212
0.12409899111806369
0.1238785365014287
0.12364960286107698
0.123429148244442
0.12321717265152374
0.12300519705860548
0.12279322146568723
0.12259820392020243
0.12239470735100091
0.12219968980551611
0.12201315128374805
0.12182661276197998
0.12164007424021192
0.12146201474216059
0.12128395524410926
0.12110589574605793
0.12093631527172331
0.12076673479738871
0.12058867529933737
0.12041061580128604
0.12024103532695142
0.12005449680518336
0.11987643730713203
0.11968989878536397
0.11950336026359588
0.1193083427181111
0.11911332517262632
0.1189183076271415
0.11872329008165672
0.11851979351245519
0.11831629694325367
0.11812127939776887
0.11791778282856735
0.11771428625936582
0.11751926871388103
0.11733273019211297
0.11714619167034489
0.11696813217229356
0.1168070307216757
0.11664592927105781
0.11651026489159012
0.11638307953583917
0.11626437320380494
0.1161711039429209
0.11609479272947035
0.1160269605397365
0.11598456542115285
0.11595912835000267
0.11595064932628592
0.11595912835000267
0.11599304444486958
0.11604391858716995
0.1161117507769038
0.11620502003778783
0.11631524734610534
0.11644243270185628
0.11658657610504071
0.11675615657937531
0.11693421607742664
0.11712923362291143
0.11734120921582969
0.11756166383246468
0.1177905974728164
0.11803648916060155
0.11829085987210347
0.11854523058360539
0.11880808031882402
0.1190794090777594
0.11935921686041148
0.11963902464306357
0.11991883242571569
0.1202071192320845
0.12050388506217007
0.12080065089225563
0.12110589574605793
0.12141961962357693
0.12173334350109595
0.12206402542604843
0.12239470735100091
0.12273386829967012
0.12308150827205605
0.12343762726815873
0.12380222528797812
0.12418378135523099
0.12457381644620058
0.12498080958460363
0.12540476077044013
0.1258456700037101
0.12630353728441354
0.1267868416362672
0.12728710403555427
0.12781280350599153
0.12836394004757898
0.12894051366031664
0.12953404532048776
0.1301614930755258
0.13081437790171402
0.13149269979905245
0.13219645876754105
0.13292565480717985
0.13367180889425212
0.1344518790761913
0.13524890730556394
0.13606289358237003
0.1369023169303263
0.1377586983257161
0.13862355874482257
0.13951385623507925
0.1404041537253359
0.14131140926302607
0.14221866480071618
0.14313439936212305
0.14405013392352992
0.14495738946122005
0.14587312402262692
0.14678037956031706
0.14767067705057374
0.1485609745408304
0.14943431398365362
0.15029917440276008
0.1511385977507164
0.15196106305123924
0.15275809128061188
0.15352968243883433
0.1542758365259066
0.15499655354182865
0.15567487543916705
0.15631928124163857
0.15692977094924315
0.15749786553826406
0.15802356500870135
0.15850686936055497
0.15895625761754167
0.15935477173222798
0.15971089072833064
0.16002461460584966
0.16029594336478503
0.16052487700513676
0.16071989455062155
0.1608725169775227
0.16099122330955692
0.16107601354672424
0.16113536671274134
0.16116080378389153
0.1611523247601748
0.16111840866530788
0.16105905549929078
0.16097426526212347
0.16086403795380597
0.16074533162177176
0.16060118821858732
0.1604485657916862
0.1602874643410683
0.1601178838667337
0.15994830339239913
0.15977024389434777
0.1596091424437299
0.1594395619693953
0.15928693954249415
0.15914279613930973
0.1590156107835588
0.15890538347524127
0.158820593238074
0.15875276104834016
0.15871884495347321
0.1587103659297565
0.15873580300090667
0.1587951561669238
0.15888842542780784
0.1590240898072755
0.15920214930532686
0.15942260392196184
0.15968545365718048
0.15999069851098277
0.16034681750708543
0.16074533162177176
0.16118624085504174
0.1616780242306121
0.16221220272476608
0.16278877633750374
0.16341622409254178
0.16408606696616346
0.1647983049583688
0.16554445904544107
0.16633300825109695
0.16716395257533653
0.16802033397072627
0.16891063146098298
0.16983484504610655
0.17078449570238036
0.17175958342980432
0.17275162920466175
0.17376063302695266
0.17478659489667703
0.1758210357901181
0.1768554766835592
0.17789839660071702
0.1789328374941581
0.17996727838759918
0.18098476123360682
0.18198528603218098
0.18296037375960494
0.18391850343959548
0.18483423800100232
0.18571605646754227
0.1865639588392153
0.18736946609230468
0.1881325782268104
0.18885329524273248
0.18952313811635416
0.19014210684767546
0.1907102014366964
0.19122742188341693
0.1916937681878371
0.19210076132624015
0.19245688032234282
0.1927621251761451
0.19301649588764702
0.19321999245684854
0.1933810939074664
0.19349980023950064
0.19358459047666793
0.19363546461896833
0.19366090169011851
0.19365242266640179
0.19361850657153484
0.19355915340551774
0.19349132121578388
0.19339805195489987
0.19329630367029912
0.1931860763619816
0.1930673700299474
0.19294018467419644
0.19281299931844548
0.19268581396269452
0.19255014958322686
0.19241448520375917
0.19228729984800821
0.19216011449225726
0.19204140816022305
0.19192270182818882
0.19182095354358805
0.19172768428270404
0.19164289404553672
0.19157506185580286
0.19151570868978576
0.19147331357120212
0.1914478765000519
0.19143939747633518
0.19143939747633518
0.1914648345474854
0.19150722966606903
0.19156658283208614
0.19165137306925345
0.1917531213538542
0.19187182768588842
0.19202445011278957
0.19218555156340744
0.1923720900851755
0.19257558665437705
0.19279604127101205
0.19303345393508048
0.1932878246465824
0.193550674381801
0.19383048216445312
0.19412724799453868
0.19443249284834097
0.19473773770214325
0.19505146157966227
0.19537366448089802
0.19568738835841704
0.19600111223593605
0.19631483611345507
0.19662008096725736
0.1969083677736262
0.1971881755562783
0.19745102529149694
0.1976969169792821
0.19791737159591707
0.19812086816511862
0.19829892766316995
0.1984515500900711
0.19857873544582205
0.19866352568298934
0.19871439982528974
0.19873135787272317
0.198705920801573
0.19863808861183915
0.19852786130352168
0.19838371790033726
0.19818870035485245
0.19795976671450075
0.19767995893184864
0.19735775603061287
0.1970016370345102
0.19659464389610717
0.19614525563912047
0.19565347226355012
0.19512777279311283
0.19455119918037517
0.1939407094727706
0.1932878246465824
0.1925925447018105
0.1918633486621717
0.19109175750394924
0.19027777122714315
0.18943834787918684
0.18857348746008037
0.18767471094610697
0.18675049736098337
0.18580932572842632
0.1848511960484358
0.18388458734472857
0.18292645766473803
0.1819598489610308
0.181010198304757
0.18007750569591668
0.17917025015822655
0.1782884316916866
0.17744052932001358
0.17663502206692422
0.17587190993241847
0.17515967194021315
0.17450678711402492
0.17390477643013708
0.17337059793598306
0.17290425163156292
0.17251421654059332
0.1722004926630743
0.1719715590227226
0.17182741561953815
0.17177654147723778
0.17182741561953815
0.17198851707015603
0.17225136680537467
0.17263292287262752
0.17313318527191462
0.17375215400323593
0.17449830809030817
0.17538012655684812
0.17639760940285576
0.17755075662833106
0.17884804725699077
0.1802810022651182
0.18186657970014675
0.18360477956207646
0.18548712282719057
0.18752208851920582
0.18971815566183894
0.1920668452313732
0.19457663625152538
0.19723904969857867
0.20006256459624983
0.20305565996825561
0.20620985679087925
0.20952515506412075
0.21301003381169692
0.21665601400989093
0.2204715746824195
0.22445671582928273
0.22860295842676379
0.2329187814985795
0.23740418504472977
0.24205916906521469
0.24687525453631745
0.25186939950547155
0.25702464592524354
0.2623494728193501
0.2678438801877913
0.2735078680305671
0.27934991537139425
0.285361543186556
0.29155123049976905
0.29791049828731675
0.3044563045966325
0.3111716913802828
0.31806513766198447
0.32513664344173754
0.33239468774325853
0.33982231251911427
0.34743647581673803
0.35522869861241313
0.36320745992985626
0.3713642807453507
0.3796991610588965
0.38822057989421044
0.3969115792038589
0.4057806380115587
0.4148192772935932
0.42402749704996223
0.4333968182569491
0.44292724091455393
0.45261876502277654
0.4624544325341836
0.4724342434487751
0.4825497187428342
0.49279237939264436
0.5031537463744887
0.5136253406646506
0.5241902042156965
0.5348483370276264
0.5455912600767235
0.5564020153155546
0.567263644696686
0.5781676691964012
0.589105609790983
0.6000605084329985
0.611015407075014
0.6219618266933128
0.6328658511930279
0.6437274805741593
0.6545127987418402
0.6652133266723537
0.6758036272945497
0.6862667425609948
0.6965772354005388
0.7067096687420314
0.716655563561756
0.7263810037648455
0.73586055228015
0.7450857300839525
0.7540311001051029
0.762671225272451
0.7709806685148466
0.7789424717848563
0.7865396770350466
0.7937383681705505
0.8005215871439347
0.8068638968840489
0.8127483393434597
0.8181409984273001
0.8230249160881368
0.827383134278536
0.831190215927348
0.8344546400582892
0.8371594486239261
0.8393046416242588
0.8408986980830041
0.8419585760475954
0.8424673174705991
0.8424588384468824
0.8419161809290118
0.8408732610118539
0.8393131206479755
0.8372696759322434
0.8347514058883746
0.8317752685638024
0.8283751800533935
0.8245680984045817
0.8203964187359504
0.8158686200712164
0.8110270975289635
0.8058972881803417
0.8004961500727845
0.794857599301159
0.7889985939128984
0.7829530500028696
0.7767209675710729
0.7703447417360918
0.7638413305453597
0.7572192130225934
0.7505038262389431
0.7437121282418422
0.7368610770787241
0.7299676307970224
0.7230487474441706
0.716121385067602
0.7092025017147502
0.7022920973856149
0.6954156091513467
0.6885815160356621
0.6817898180385613
0.6750574732074774
0.6684014395898442
0.6618132381619448
0.655301347947496
0.6488742479702144
0.642540417253817
0.6362998557983036
0.6301525636036742
0.6240985406699288
0.6181462660207842
0.6122872606325236
0.606521524505147
0.6008575366623712
0.5952698600330459
0.5897754526646047
0.5843658355333309
0.5790325296155076
0.5737755349111349
0.568586372396496
0.5634565630478742
0.5583861068652695
0.5533750038486819
0.548406295950678
0.5434799831712578
0.538596065510421
0.5337375849207346
0.5289045414021984
0.5240969349548124
0.5193147655785766
0.5145410752260574
0.5097843429209717
0.5050445686633196
0.5003132734293841
0.4955904572191654
0.4908845990563801
0.4861872199173115
0.48150679882567643
0.4768518148051915
0.47221378883214016
0.4676011999302389
0.4630225271232045
0.4584777704110371
0.4539838878411701
0.4495408794136035
0.44516570317577064
0.4408583591276717
0.43662732629302337
0.4324810836955422
0.4284196313352285
0.42445144823579867
0.420576534397253
0.41680336884330804
0.4131234725502471
0.4095538035655037
0.40609436188907777
0.4027366684972526
0.3994892024137449
0.39635196363855474
0.39333343119539876
0.3904251260605603
0.3876355272577561
0.38496463478698606
0.3824039696245335
0.3799620107941152
0.3776472373194478
0.3754511701768147
0.37338228838993254
0.37143211293508455
0.3696176018597043
0.36792179711635825
0.3663616567524799
0.36492022272063573
0.3636144530682593
0.3624358687716338
0.3613759908070425
0.36044329819820214
0.3596293119213961
0.3589425110003409
0.35835745836388655
0.3578826330357497
0.3575180350159302
0.3572467062569949
0.35707712578266027
0.356992335545493
0.356992335545493
0.3570686467589435
0.357212790162128
0.35741628673132947
0.35767913646654814
0.35798438132035043
0.35832354226901963
0.3586796612651223
0.35906121733237517
0.359442773399628
0.35982432946688087
0.36019740651041704
0.3605535255065197
0.36088420743147215
0.36118097326155774
0.36143534397305965
0.3616473195659779
0.3618169000403125
0.3619356063723467
0.36200343856208056
0.362020396609514
0.36200343856208056
0.3619356063723467
0.36182537906402923
0.36168123566084476
0.3614946971390767
0.3612827215461585
0.3610368298583733
0.3607570220757212
0.36046025624563566
0.36012957432068315
0.35978193434829725
0.35940885730476113
0.3590188222137915
0.35861182907538847
0.3581963569132687
0.3577554476799987
0.35729758039929527
0.3568312340948751
0.3563479297430215
0.3558476673437344
0.3553304468970139
0.3547962684028599
0.35425361088498913
0.35368551629596817
0.35310894268323056
0.3525154110230594
0.3518964422917381
0.3512689945367001
0.3506245887342286
0.3499547458606069
0.34927642396326847
0.3485726649947799
0.3478519479788578
0.34710579389178553
0.34635116078099654
0.3455795696227741
0.3447825413934014
0.34397703414031205
0.34315456883978923
0.34231514549183295
0.34146724312015997
0.3406023827010534
0.3397205642345135
0.3388302667442568
0.3379314902302834
0.3370242346925933
0.33610002110746967
0.3351673284986294
0.334234635889789
0.333293464257232
0.3323522926246749
0.33141112099211784
0.33047842838327757
0.3295457357744372
0.3286300012130304
0.32773122469905697
0.32684092720880026
0.3259845458134105
0.32514512246545424
0.3243396152123649
0.32355954503042567
0.3228133909433534
0.3221096319748648
0.32144826812495986
0.3208292993936385
0.3202612048046176
0.3197439843578971
0.3192776380534769
0.31886216589135713
0.31850604689525447
0.3182008020414522
0.317954910353667
0.31776837183189893
0.317641186476148
0.3175648752626974
0.31755639623898063
0.31760727038128106
0.3177090186658818
0.31787859914021643
0.3180990537568514
0.31838734056322027
0.3187265015118894
0.3191334946502925
0.31959984095471267
0.32013401944886666
0.3207275511090378
0.32138043593522597
0.32210115295114805
0.32288970215680396
0.3237291255047603
0.3246279020187337
0.3255860316987242
0.3266035145447318
0.32767187153303984
0.32879958168736495
0.32997816598399043
0.33121610344663305
0.3325049150515761
0.33384460079881945
0.3352351606883632
0.33666811569649063
0.3381604238706351
0.3396951271633633
0.3412807045983919
0.34290019812828737
0.34457056580048323
0.3462833285912627
0.3480469655243426
0.34985299757600613
0.3516929457225366
0.3535837680113674
0.3555169854187819
0.35749259794478006
0.3595106055893619
0.36156252932881056
0.3636483691631262
0.36577660411602547
0.3679387551637917
0.37013482230642486
0.3723648055439249
0.37462870487629185
0.37692652030352575
0.37924977280190986
0.3815984623714441
0.3839810680358453
0.3863721527239632
0.38878019545951464
0.3912051962424995
0.3936217180017676
0.3960467187847524
0.39846324054402055
0.40086280425585524
0.4032454099202564
0.4055940994897907
0.40790887296445805
0.4101897303442585
0.4124197135817585
0.4146073017006749
0.41672705762985746
0.41879593941673965
0.4207885099901713
0.4227217273975857
0.4245701545678329
0.4263507495483463
0.4280380752679756
0.42964908977415434
0.43117531404316584
0.4326082690512932
0.4339479547985366
0.43520285030861267
0.4363644765578047
0.4374497915935462
0.43843335834468683
0.43934909290609375
0.4401715582066166
0.44092619131740557
0.4415960341910273
0.4422065238986318
0.44274918141650255
0.44322400674463946
0.44363947890675925
0.4439955979028619
0.44429236373294745
0.44453825542073266
0.4447247939425007
0.44485197929825165
0.44491981148798554
0.444936769535419
0.44488589539311857
0.44476718906108437
0.444589129563033
0.4443432378752478
0.44402951399772883
0.4436564369541927
0.443207048697206
0.44270678629791893
0.4421302126851812
0.44150276493014323
0.440815964009088
0.44007828894573253
0.4392982187637933
0.43848423248698726
0.43762785109159746
0.4367460326250575
0.4358387770873674
0.4349230425259606
0.4339818708934035
0.43304069926084643
0.43209104860457265
0.4311413979482988
0.43020022631574184
0.42926753370690146
0.4283433201217779
0.4274360645840877
0.42654576709383113
0.42568090667472464
0.42484148332676824
0.4240359760736789
0.4232559058917397
0.4225182308283842
0.42180599283617887
0.42113614996255716
0.4205002231838024
0.41990669152363136
0.41935555498204385
0.41884681355904
0.41838046725461986
0.41795651606878337
0.41758343902524725
0.4172612361240115
0.41698142834135943
0.4167440156772909
0.4165574771555228
0.4164218127760551
0.4163285435151711
0.4162861483965875
0.4162861483965875
0.4163370225388879
0.4164302917997719
0.4165744352029563
0.4167694527484411
0.41700686541250953
0.4172866731951616
0.41761735512011416
0.4179904321636503
0.4183974253020533
0.4188383345353233
0.4193046808397435
0.41980494323903056
0.42032216368575104
0.4208563421799051
0.4213905206740591
0.4219416572156465
0.4224843147335173
0.423026972251388
0.4235526717218253
0.4240698921685459
0.42456167554411617
0.42502802184853633
0.42546893108180633
0.42586744519649267
0.42623204321631203
0.42654576709383113
0.42681709585276645
0.4270375504694014
0.427207130943736
0.4273343162994869
0.42740214848922087
0.4274191065366543
0.4273851904417874
0.42729192118090337
0.42715625680143565
0.4269697182796676
0.4267238265918824
0.4264270607617969
0.42607942078941086
0.42568090667472464
0.42523151841773793
0.4247312560184508
0.42418011947686335
0.4235781087929755
0.422933702990504
0.42224690206944887
0.4215092270060933
0.4207291568241542
0.41990669152363136
0.4190503101282415
0.4181515336142681
0.4172273200291446
0.41626919034915405
0.4152941026217301
0.4142935778231559
0.41329305302458175
0.4122755701785741
0.4112665663562832
0.41024908351027556
0.40924007968798465
0.4082310758656938
0.40723903009083634
0.4062554633396956
0.4052888546359884
0.4043392039797146
0.40340651137087424
0.4024822977857507
0.40158352127177727
0.4006932237815206
0.39981988433869736
0.3989635029433076
0.39812407959535134
0.3972931352711118
0.3964876280180224
0.3956990788123665
0.3949359666778608
0.39418981259078856
0.3934606165511497
0.3927568575826611
0.392070056661606
0.391408692811701
0.39077276603294625
0.3901622763253416
0.3895772236888873
0.3890260871472998
0.38849190865314576
0.38799164625385874
0.38750834190200506
0.38705895364501836
0.3866434814828986
0.3862449673682123
0.38588036934839287
0.38554120839972367
0.3852274845222047
0.3849391977158358
0.38466786895690047
0.3844219772691153
0.38419304362876355
0.38397258901212855
0.38377757146664376
0.38359103294487573
0.3834214524705411
0.3832518719962065
0.38309077054558865
0.3829381481186875
0.38279400471550307
0.3826498613123187
0.382514196932851
0.38238701157710003
0.3822683052450658
0.38215807793674833
0.38205632965214753
0.38197153941498024
0.3819037072252464
0.38185283308294604
0.38181043796436237
0.3817850008932122
0.38177652186949546
0.38177652186949546
0.3817850008932122
0.3818019589406456
0.3818273960117958
0.38186131210666274
0.38188674917781296
0.3819037072252464
0.38192066527267987
0.38192914429639657
0.38192066527267987
0.3819037072252464
0.3818697911303795
0.3818273960117958
0.38176804284577875
0.38169173163232817
0.3816069413951609
0.3814967140868434
0.3813780077548091
0.38124234337534146
0.38109819997215705
0.3809455775452559
0.38077599707092125
0.3806064165965867
0.3804113990511019
0.38020790248190034
0.3799874478652654
0.37975003520119693
0.3794871854659783
0.3791988986596095
0.37888517478209044
0.3785290557859878
0.3781390206950182
0.3776981114617482
0.3772063280861778
0.3766551915445904
0.37605318086070255
0.37538333798708085
0.374654141947442
0.3738571137180694
0.37300073232267966
0.37207651873755604
0.37108447296269864
0.3700415530455408
0.36893927996236586
0.36777765371317384
0.3665821113691149
0.3653356948827556
0.36405536230152924
0.36274111362543604
0.36141838592562614
0.3600787001783828
0.35873053540742267
0.3573908496601793
0.35606812196036935
0.3547538732842762
0.3534650616793332
0.35221016616925716
0.350989186754048
0.3498106024574225
0.34867441327938065
0.34758909824363915
0.3465461783264813
0.3455710905990574
0.34464687701393376
0.343790495618544
0.3430019464128881
0.34228970842068274
0.3416453026182113
0.34107720802919034
0.3405939036773367
0.3401953895626504
0.3398901447088481
0.3396696900922131
0.3395425047364622
0.3395085886415953
0.33957642083132905
0.3397460013056637
0.34001733006459905
0.3403819280844184
0.34085675341255534
0.34142484800157624
0.3421031698989147
0.3428747610571371
0.3437396214762436
0.3447062301799509
0.3457745871682589
0.3469277343937342
0.3481741508800935
0.3495138366273369
0.35094679163546433
0.35245605785704226
0.3540585933395043
0.3557459190591336
0.3575180350159302
0.35937494120989416
0.36129967959359194
0.363309208214457
0.36539504804877265
0.3675487200728221
0.3697787033103222
0.37207651873755604
0.3744421663545238
0.3768756461612254
0.3793769581576608
0.38192914429639657
0.3845491626248662
0.387228534119353
0.38996725877985683
0.3927568575826611
0.3955973305277657
0.39848867761517076
0.4014139407974427
0.40438159909829824
0.407374694470304
0.41039322691346
0.4134371964277661
0.41648116594207224
0.41953361448009524
0.4225860630181181
0.4256215535087075
0.4286400859518635
0.431641660347586
0.4346008396247248
0.4375261028069967
0.44040049184696833
0.44322400674463946
0.4459966475000102
0.44870993508936385
0.45136386951270047
0.45396692979373665
0.4565106369087557
0.4589949908577577
0.46142847066445924
0.4638110763288605
0.466151286874678
0.46844062327819513
0.4706960435868454
0.4729175478006287
0.4751136149432618
0.47727576599102806
0.4794209589913608
0.4815491939442601
0.4836519918260092
0.4857378316603248
0.48781519247092375
0.4898755952340892
0.49191903994982117
0.4939540056418364
0.49597201328641827
0.4979730628835666
0.4999741124807149
0.5019666830541465
0.5039507746038614
0.5059263871298596
0.5079019996558576
0.5098776121818558
0.5118617037315707
0.5138457952812855
0.5158298868310004
0.517822457404432
0.5198235070015803
0.5218330356224454
0.5238425642433104
0.5258690509116091
0.5278955375799076
0.5299305032719228
0.531965468963938
0.5340004346559533
0.5360354003479686
0.5380703660399838
0.5400883736845656
0.542089423281714
0.5440735148314289
0.5460236902862768
0.5479399496462578
0.5498053348639385
0.5516198459393187
0.5533834828723986
0.5550877666394615
0.5567326972405071
0.5583097956518189
0.5598275408971136
0.5612689749289578
0.5626510557947848
0.5639737834945947
0.5652286790046708
0.5664242213487297
0.5675519315030548
0.5686202884913629
0.5696292923136538
0.5705704639462108
0.5714607614364675
0.5722832267369903
0.5730548178952127
0.573767055887418
0.5744368987610399
0.5750643465160779
0.5756493991525322
0.5762005356941197
0.5767262351645569
0.577226497563844
0.5777098019156977
0.5781761482201179
0.5786340155008213
0.5790664457103746
0.5794903968962111
0.5799058690583309
0.5803043831730171
0.58068593924027
0.5810590162838061
0.581406656256192
0.5817373381811445
0.5820510620586635
0.5823308698413155
0.5825852405528176
0.5828056951694525
0.5830007127149374
0.5831618141655552
0.5833059575687396
0.5834161848770572
0.5835179331616579
0.5835942443751084
0.5836705555885591
0.5837299087545761
0.5837807828968765
0.5838231780154601
0.583857094110327
0.583891010205194
0.5839079682526275
0.5839164472763442
0.5839079682526275
0.583891010205194
0.583857094110327
0.5837977409443099
0.5837129507071427
0.5835942443751084
0.5834501009719241
0.583263562450156
0.583043107833521
0.5827972161457359
0.5825258873868004
0.5822206425329981
0.5818984396317625
0.5815592786830932
0.5812116387107072
0.5808385616671711
0.5804570055999182
0.5800669705089486
0.5796599773705456
0.5792445052084259
0.5788205540225894
0.5783966028367528
0.5779556936034829
0.5775147843702129
0.5770738751369429
0.5766329659036729
0.576192056670403
0.5757596264608497
0.5753271962512965
0.5749117240891767
0.5745047309507736
0.5741146958598041
0.5737500978399847
0.5734109368913154
0.5730887339900796
0.5728004471837109
0.5725460764722089
0.5723086638081405
0.572105167238939
0.5719355867646044
0.57179144336142
0.5716812160531024
0.5715964258159352
0.5715285936262013
0.5714861985076177
0.5714607614364675
0.571443803389034
0.571443803389034
0.5714607614364675
0.5714777194839009
0.5715116355787679
0.5715455516736349
0.5715964258159352
0.571664258005669
0.5717405692191195
0.5718253594562869
0.5719355867646044
0.5720627721203553
0.5722069155235397
0.5723680169741576
0.5725630345196424
0.5727834891362774
0.5730293808240626
0.5733091886067148
0.5736313915079504
0.5739705524566195
0.5743521085238725
0.5747506226385588
0.5751830528481121
0.5756409201288155
0.5761157454569524
0.5766160078562395
0.57713322830296
0.5776758858208307
0.5782270223624182
0.5788035959751558
0.5793886486116102
0.5799821802717814
0.580592669979386
0.5812116387107072
0.5818306074420285
0.5824580551970666
0.5830855029521046
0.5837044716834259
0.5843149613910306
0.5849084930512016
0.5854765876402226
0.5860192451580933
0.5865195075573804
0.5869773748380839
0.5873843679764869
0.5877320079488728
0.5880033367078081
0.588198354253293
0.5883085815616105
0.588325539609044
0.5882237913244431
0.5880033367078081
0.5876472177117055
0.5871469553124185
0.5865110285336637
0.585714000304291
0.584772828671734
0.5836705555885591
0.582415660078483
0.580999663117789
0.5794310437301939
0.577701322891981
0.5758274586505835
0.5738094510060018
0.5716472999582355
0.5693579635547183
0.5669329627717336
0.5643807766329978
0.5617098841622277
0.5589287643831402
0.5560458963194519
0.5530697589948796
0.5500003524094232
0.5468546346105164
0.543632605598159
0.5403512234197843
0.5370189670991092
0.5336358366361339
0.5302187900782916
0.5267678274255825
0.5232999067254398
0.5198235070015803
0.5163386282540042
0.5128537495064281
0.5093773497825688
0.5059094290824261
0.5024669454534336
0.49904989889559126
0.49565828940889917
0.49230907504079074
0.48899377676754924
0.4857293526366081
0.48250732362425064
0.47935312680162695
0.47625828314502044
0.473222792654431
0.47026361337729217
0.4673807453136039
0.4645657094396495
0.4618354638028623
0.4591815293795258
0.4566123851933565
0.4541195522206378
0.4517030304613697
0.44937129893926886
0.44710739960690193
0.444936769535419
0.4428339716536699
0.44080748498537137
0.4388657885542401
0.4370004033365595
0.4352198083560461
0.43351552458898335
0.43189603105908786
0.4303528487426429
0.42888597763964864
0.42750389677382156
0.4261981271214451
0.42497714770623596
0.4238240004807607
0.42273868544501925
0.4217296816227283
0.4207885099901713
0.4199236495710648
0.41911814231797545
0.41838046725461986
0.41770214535728145
0.4171001346733936
0.4165489981318062
0.41606569377995245
0.41565022161783277
0.4152856235980133
0.41498885776792777
0.4147429660801426
0.41454794853465776
0.41441228415519016
0.4143190148943061
0.41427661977572244
0.4142681407520057
0.41430205684687266
0.4143698890366065
0.4144716373212073
0.4146073017006749
0.4147768821750095
0.4149718997204943
0.4151838753134126
0.4154297670011977
0.41569261673641633
0.41597242451906846
0.41627766937287075
0.41659139325038974
0.4169135961516255
0.41724427807657805
0.41758343902524725
0.41793107899763315
0.4182956770174526
0.41866875406098875
0.4190503101282415
0.41945730326664465
0.41987277542876433
0.42032216368575104
0.42079698901388796
0.42131420946060855
0.42187382502591275
0.4224843147335173
0.42316263663085574
0.4239003116942113
0.4247227769947341
0.4256215535087075
0.4266220783072816
0.4277243513904566
0.42894533080566577
0.4302850165529091
0.43176036667962014
0.43337986020951563
0.435160455190029
0.43709367259744347
0.4391964704791926
0.4414688488352763
0.44391928668941133
0.44654778404159773
0.44937129893926886
0.45238135235870813
0.4555779442999154
0.45897803281032423
0.4625731388662178
0.46637174149131294
0.47038231970932637
0.47459639449654134
0.4790224448766745
0.4836604708497259
0.48850199339197886
0.4935639705508668
