0.13286224760794815
0.1326376859642004
0.1324144756648575
0.1321958228407623
0.13198008468106973
0.1317668902284922
0.1315596045955673
0.13135655847450073
0.13115859976766414
0.13096678835302222
0.1307818926420993
0.13060343568981125
0.1304311260297178
0.1302671099146973
0.1301100360003449
0.12996122913411629
0.12981907300211545
0.1296846539792562
0.12955948239163795
0.12944143848333162
0.1293313436597597
0.12922858849109256
0.1291331729773302
0.12904639546897928
0.12896642767655092
0.12889308412140116
0.12882726569980005
0.12876889292090019
0.1287167999189405
0.12867252351696976
0.12863269860245025
0.12860066379097046
0.12857557118015872
0.12855614891645759
0.12854149610359714
0.12853325555242245
0.12853116229344236
0.12853463339377644
0.12854419879240683
0.12855824217543765
0.12857896278964545
0.12860567171435314
0.12863638167837715
0.1286735568979852
0.12871616399216176
0.12876420296090688
0.12881809775540634
0.12887755690921993
0.12894411724539623
0.1290156590080062
0.12909443443772442
0.12917853575421473
0.1292692348110346
0.1293649682881863
0.12946851836532686
0.12957845420720415
0.12969482880771627
0.12981679426449158
0.12994742422362746
0.130083512554281
0.13022606614051851
0.13037537644878033
0.13053101952788057
0.13069196199680375
0.13086021762368263
0.13103417009462115
0.13121453482724543
0.13139993398020158
0.13159224883687665
0.1317892006596469
0.13199240576240812
0.13220255306583745
0.1324177347895986
0.13263683806182874
0.13286245958354115
0.1330925590896539
0.1333265271503374
0.13356688097575756
0.1338097255143946
0.1340575779764142
0.1343085040845312
0.13456226536620347
0.13482055762617437
0.13508179104749704
0.13534615110881518
0.13561485666978818
0.1358868213555023
0.13616334351646417
0.13644357525030212
0.1367282319746422
0.1370163068054181
0.13730925707483116
0.1376070562859322
0.13790835309431634
0.13821436635964296
0.13852705685614655
0.13884284749569653
0.13916364605862916
0.13948783623104852
0.13981865064074658
0.14015126684298446
0.14048915593809613
0.1408302511640507
0.1411739960849168
0.14152129159696428
0.1418691700418922
0.14222012213291751
0.14257279652563523
0.14292700774140163
0.14328010608530525
0.1436358541241203
0.143990595278869
0.14434515095497394
0.14469883223175803
0.1450515066244758
0.14540184928567138
0.14574885333127857
0.14609408208129507
0.1464356807492829
0.14677235098473526
0.14710435775714353
0.14743196603599867
0.14775334753181185
0.1480692971530565
0.14837716520482117
0.1486782500376124
0.14897096183448344
0.14925614849780583
0.1495308423692788
0.14979639479330714
0.15005174589192627
0.15029763757971143
0.15053226806412284
0.15075563734516045
0.1509695472153641
0.15117007612626474
0.15136008574836685
0.15154092742607522
0.15170939502854702
0.15186652193679767
0.15201410994336706
0.15214932387469976
0.1522738595355392
0.15238782291368194
0.15249137299082247
0.1525837413554366
0.15266437157159288
0.15273721168470944
0.1527974392500473
0.15284849887099147
0.15288903920313712
0.1529212594932607
0.15294314597322953
0.1529576663013444
0.15296079294133996
0.15295843471286877
0.15294714701254575
0.1529306394132473
0.15290549380853743
0.1528730350458718
0.15283434950016422
0.15278999360734605
0.15274023233690853
0.15268321090241352
0.15262237390724598
0.15255456821446123
0.15248270848846196
0.1524057613482326
0.15232396526631525
0.15223761170915018
0.1521456407987728
0.15205019878806136
0.15194993433261103
0.15184778859377351
0.15174005199867285
0.15163046061713414
0.15151901444915739
0.15140277233339075
0.15128549683660875
0.1511642467974595
0.15104066502678817
0.15091573191171195
0.15078769865358932
0.150658340548011
0.150524001015999
0.15038974097483443
0.15025330818384244
0.15011271537183937
0.14997167211170137
0.14982731673292407
0.14968118605855607
0.14953169027165045
0.14938068415864528
0.14922726682327075
0.14907191521061078
0.1489137549213446
0.14875331589445462
0.14859115456587219
0.1484260520759379
0.14826129404634222
0.14809282644387045
0.14792475629563534
0.1477563416870618
0.1475888544717073
0.1474213142624545
0.14725425099828576
0.14709036736801084
0.14692910693569833
0.1467688533874521
0.14661207093953998
0.14646029641501052
0.14631095960979956
0.1461668692005134
0.14602677983054357
0.14589304972836123
0.14576374461668112
0.14564074577889027
0.14552315231871887
0.14541207710802978
0.14530587733597772
0.14520725569137244
0.14511592070777377
0.14503052104077688
0.14495073872699227
0.14487816358336686
0.14481250414346045
0.14475421085540788
0.14470248881073586
0.14465807992401947
0.14462008329898884
0.14458985028004892
0.14456568506245626
0.1445491509662086
0.14453730682995436
0.14453296133029944
0.14453399471131492
0.14454112239062683
0.14455325799332144
0.1445708784644827
0.1445930829078409
0.14461957985695573
0.14465084625691108
0.14468465636398162
0.14472283846765602
0.14476239841268437
0.14480569442753793
0.1448513221739136
0.14489668495079813
0.14494541284022014
0.14499432620828603
0.14504374301838513
0.14509520009356597
0.1451454648060368
0.14519668340867564
0.1452464446791132
0.14529469562345124
0.14534217815626496
0.14538730246060738
0.14542969757919103
0.14546835662794955
0.14550373005501774
0.14553748716819
0.14556578590984454
0.145590587054216
0.145609744348426
0.14562376123450774
0.1456327172033085
0.14563600282499875
0.14563340612398548
0.14562344327111837
0.1456073596230056
0.14558496970100368
0.1455568564379929
0.14552140352007728
0.14547972381911975
0.1454313403900362
0.14537786954672252
0.14531798644172314
0.14525158508724145
0.1451809972147997
0.14510505695863674
0.14502461222112425
0.1449413588070056
0.14485293848780956
0.14476136503166892
0.14466828124942868
0.14457238879058223
0.14447641684088852
0.14437750372984304
0.1442792000486272
0.1441815322941901
0.14408455346043
0.14398990635819203
0.1438957891949363
0.14380546109540399
0.1437178621816305
0.14363442328886813
0.14355490594457468
0.14348092646264618
0.14341020610545882
0.14334618947639752
0.14328816115783613
0.1432360681558765
0.14319054639729725
0.14315082747057425
0.1431187661621453
0.14309229570997967
0.14307356236695548
0.1430620626910397
0.1430583266212145
0.14306004892290694
0.1430712041384843
0.14308755275608817
0.14311346677232234
0.14314568706244596
0.14318654535798095
0.1432334449579141
0.14328834663647994
0.14335042898825587
0.1434213613210361
0.14349923585448446
0.14358405258860096
0.14367665942575705
0.1437749101130747
0.14387989102546747
0.14399152267208803
0.1441072348488723
0.14422957126293526
0.14435529928648483
0.14448577026392606
0.14461928839051544
0.14475527073337252
0.14489239244504148
0.14503208436077467
0.1451706899015941
0.14531022283563247
0.14544933181848507
0.14558613556676472
0.1457232837753828
0.14585613947824433
0.14598838575127623
0.14611755837821078
0.14624431978277594
0.14636639122734774
0.14648724381226022
0.14660398937005992
0.1467174228092203
0.14682794158397808
0.14693371740484426
0.1470379034087636
0.14713596861743744
0.1472315431128944
0.14732364650801744
0.14741000006518248
0.1474928030311662
0.14757035960122517
0.14764508099772886
0.1477139465684781
0.1477783341548271
0.14783622998864293
0.14789086669771756
0.14794081344679888
0.1479847453884312
0.14802525922362772
0.1480612420805256
0.14809319740115806
0.14812210557264227
0.14814534339701588
0.14816760083427233
0.14818400244577443
0.14819748939287375
0.1482077437121812
0.14821468591284928
0.14821958784843553
0.14822006479351965
0.14821762707420105
0.14821304310200414
0.14820578293794676
0.14819629703016363
0.1481846383725532
0.14816974708715064
0.14815480280784993
0.14813826871160232
0.148120197792306
0.14810016609877522
0.1480789950364325
0.14805541275172043
0.1480321219334485
0.1480076652494155
0.14798204269962154
0.1479561816772855
0.1479293402678322
0.14790210140414223
0.1478751010129943
0.14784704074388172
0.14781818556629572
0.14778861497108364
0.1477591768606171
0.14772979174404882
0.14769844585324599
0.14766935220311794
0.14763829777875548
0.1476081442506628
0.14757658638426716
0.14754539947515904
0.1475138416087633
0.1474826282027061
0.14745048740342986
0.14741824061635717
0.14738451000013406
0.14735149480153703
0.1473167043073494
0.14728148986197578
0.1472438112003346
0.14720568209055843
0.1471642143651938
0.14712187224050835
0.14707725137819905
0.14703011330572385
0.14698040502918452
0.14692900094790193
0.1468745232205219
0.14681935657246492
0.14676029487288803
0.14669974934416077
0.14663642163577642
0.14657081518976825
0.14650197611596802
0.1464296924387829
0.1463552625087195
0.1462774939630676
0.14619630731097993
0.1461131598846577
0.1460259849220701
0.14593552433779225
0.1458424935494502
0.14574681306619677
0.14564856237887913
0.14554776798444655
0.14544424440425502
0.1453392634918623
0.1452324542899806
0.14512379030166087
0.14501385445978365
0.14490410409655025
0.1447931613706066
0.1446826955897471
0.14457326318990305
0.1444649171649727
0.1443574985332614
0.1442523586391739
0.14414910002847364
0.1440479346767534
0.14395031991621451
0.14385410949397878
0.14376123768733146
0.14367143952678146
0.1435846355214814
0.14350040172024553
0.14341950653459812
0.14334139352860767
0.14326749353752663
0.1431956073145782
0.14312822557297936
0.1430628840964622
0.1430009077324828
0.14294274692917583
0.14288760677806797
0.14283524880661716
0.14278779277075257
0.1427433043931889
0.14270154520138395
0.1426633101038113
0.1426284666157254
0.14259661728288944
0.14256850401987864
0.14254338491211785
0.142521948880284
0.14250403694268238
0.14248850973050112
0.1424762151461119
0.14246784211019162
0.14246238373867398
0.14246031697664302
0.14246190679358986
0.1424660668146009
0.14247430736577563
0.1424837402796605
0.1424948160043904
0.14250936282945448
0.14252602941044765
0.14254372937245635
0.14256161481310883
0.14258204396087631
0.14260053883135843
0.14262213384488698
0.14264349038587348
0.14266474093906356
0.14268440167530672
0.14270634114917377
0.1427261078732134
0.1427462720514897
0.14276548233959796
0.14278556702702697
0.1428053867449648
0.14282377562765045
0.14284126361406618
0.14286015593878507
0.14287560366011898
0.142892005271621
0.14290729401126023
0.14292104592785085
0.1429340294329171
0.14294491967900325
0.14295628687017353
0.14296434194270438
0.14297303294201405
0.14297841182268434
0.1429826513345427
0.14298559249589446
0.14298363172165998
0.1429817769352219
0.14297674251489012
0.1429678130430385
0.14295777069932392
0.14294438974002094
0.14292793513462068
0.14290838038617398
0.1428860964519684
0.1428586721096346
0.1428300819015398
0.14279595383107996
0.142760182949775
0.14272033153830638
0.14267761845633337
0.142632070200805
0.1425820174639272
0.1425307988612883
0.1424767715820433
0.14241964415975183
0.14236034398763292
0.14230101731856493
0.1422395708935677
0.14217799198382503
0.142116121607642
0.14205403925586604
0.1419909235230746
0.14192947709807752
0.14186906405409574
0.14180931343384195
0.1417507021824
0.14169397221434527
0.14163854059679715
0.1415858381650079
0.14153461956236893
0.14148578568515044
0.14143899207301375
0.14139513962222874
0.14135420183584643
0.14131307857082034
0.14127606233290693
0.1412394965431285
0.14120682580487004
0.14117513545372876
0.1411440545324171
0.14111480190059436
0.14108459537860354
0.14105685307288035
0.141026063618009
0.14099702296177913
0.14096652497334808
0.14093441067102094
0.14090110400598369
0.14086379630163004
0.14082537572541365
0.1407837225214052
0.14073798878723304
0.14068798904425345
0.14063512763076944
0.14057773523898687
0.14051618282619316
0.14045142428255666
0.140381551827741
0.14030669794649178
0.1402277370381297
0.14014339724909733
0.1400545264817664
0.1399608597666456
0.13986252958848067
0.13975786663947729
0.1396499445657328
0.13953661711436882
0.1394176193158944
0.13929491194454377
0.1391671701528614
0.13903622223033618
0.1388997894393442
0.13876020351140753
0.13861568915093547
0.13846807464741703
0.13831683006186987
0.13816195539429396
0.13800588836400787
0.13784568780965992
0.13768299654209512
0.13751972234164986
0.13735363946459841
0.13718731811500492
0.1370198838935486
0.1368513103032804
0.13668257773131745
0.13651498452816646
0.13634996152907958
0.13618477954829802
0.1360228566922576
0.13586146377519945
0.13570362144932271
0.13554885276954332
0.1353964158212859
0.13524715850692234
0.1351011338203508
0.1349586332280115
0.1348189148153293
0.13468216406094785
0.1345493878489337
0.13441931432572923
0.13429332133268845
0.13417042848269406
0.1340513246964231
0.13393587748913005
0.13382384838827271
0.13371576733283355
0.13361083941433902
0.1335093560992294
0.13340999254004896
0.13331386160866054
0.13322067183862385
0.13313039673298976
0.13304181743209906
0.132956391268153
0.13287263441200114
0.13279274611042016
0.1327138911898545
0.13263969973233314
0.13256717758260597
0.13249847099355133
0.13243238760245907
0.13236807950695748
0.13230650059721474
0.13224841928475517
0.13219131835941278
0.13213747655881156
0.13208442966668374
0.1320337410030272
0.13198490712580863
0.13193742459299493
0.13189060448390916
0.13184569215515957
0.13180202518301845
0.1317582522230808
0.13171500920212548
0.13167118324828958
0.1316268803493697
0.13158220649316216
0.1315365787467865
0.13148933468651489
0.13144087176658395
0.13139036858157116
0.13133869953079733
0.13128332090714745
0.13122664393299094
0.13116819166324373
0.13110536739689252
0.1310410857983401
0.130972962142166
0.13090234777277512
0.13082757338237314
0.1307507322299403
0.13067253973310258
0.13058984275491534
0.1305060064079162
0.13041917590566704
0.13033189495528297
0.13024193781303828
0.1301499404057118
0.13005730707160645
0.12996297793275785
0.12986962918102649
0.12977408118251854
0.12968014949790663
0.12958438952380585
0.12949000739105904
0.12939435340475464
0.12930087216827768
0.1292074969195972
0.12911507556108484
0.12902278668731798
0.12893229960609112
0.12884377329909857
0.12875641285786715
0.12867021828239675
0.12858556052997502
0.1285034994785665
0.12842400863122222
0.12834639906726497
0.12827059129584764
0.1281981486369678
0.12812634190486674
0.1280579267822524
0.1279916579125163
0.12792761478650588
0.1278647640232056
0.12780440397312215
0.12774497131625767
0.12768726096108568
0.1276324652703163
0.1275776165856487
0.12752573555928196
0.12747483492003245
0.12742568307942456
0.12737772360152683
0.12733177789176178
0.12728895882199226
0.12724672268510331
0.12720589088651746
0.1271663044445399
0.12712814883781468
0.12709293439244115
0.12705848835859188
0.1270265595349086
0.12699579657698637
0.126966861908553
0.12693919909367718
0.12691582878455793
0.12689195503340553
0.1268703865168261
0.12685162667685282
0.12683310530942157
0.12681601477724255
0.1268005405589595
0.12678631169728485
0.12677229481120314
0.12675888735495106
0.12674669875835828
0.12673323830820796
0.12672221557737623
0.12671111335569712
0.12669945469808658
0.1266878755313235
0.12667446807507138
0.1266628889083082
0.12664889851917563
0.12663408672462043
0.12661903645752326
0.12660146898026017
0.1265823646799484
0.12656182954438444
0.1265385122291634
0.1265146119810619
0.1264868961722879
0.12645769653436334
0.12642767549101627
0.12639439532292815
0.12635989629518068
0.1263224826030306
0.12628297565190047
0.1262417463990779
0.12619850337812258
0.1261536175463221
0.12610687692808364
0.12605873197154202
0.12600799031398727
0.1259564272510099
0.1259037248192206
0.1258490616131968
0.12579299406886996
0.125735071738105
0.12567593054768086
0.12561398068065047
0.12554980506989447
0.12548348320626018
0.12541498859279843
0.125344480211204
0.1252705802201229
0.12519434849751965
0.12511501663187
0.12503258462317393
0.12494888076092033
0.12486096388375742
0.12477151018354593
0.12467832041350929
0.12458295789364515
0.12448377981310858
0.12438224350410072
0.12427718310086061
0.1241691285423705
0.12405760288354636
0.12394276510608293
0.1238242177557434
0.12370219930506982
0.12357649777846931
0.12344766961187323
0.12331568830833252
0.12317975895937369
0.12304075596431753
0.12289653307028575
0.12275252215184691
0.12260260241375547
0.12245008597465083
0.12229446939249972
0.1221358586550986
0.12197428025939669
0.12181222491861067
0.12164595656291537
0.1214796352133219
0.12131241296745854
0.12114439581312171
0.1209746563570924
0.12080557932479091
0.12063679375892981
0.12046853813205091
0.12030012352347744
0.12013406714337505
0.11996771929683249
0.11980227234655977
0.11963838871628484
0.11947543247922893
0.11931372159878137
0.11915344155358608
0.11899472482838856
0.1188368825025118
0.11868068298748015
0.11852591430770067
0.11837186104554735
0.11821950358813735
0.11806865645682692
0.11791884270653194
0.1177706982640312
0.11762223585814106
0.11747448886987706
0.11732788125042497
0.11718137961876934
0.11703469250846991
0.11688880030664389
0.11674346454074933
0.11659704239994105
0.11645141516760621
0.11630576143832225
0.1161606906419188
0.11601522239127865
0.11586986012843493
0.1157246833442351
0.1155788706332564
0.11543207753516052
0.11528573488519958
0.1151390477749002
0.11499228117375337
0.11484662744446941
0.11470107970298195
0.114556591839459
0.1144125809210202
0.11426992134698619
0.11412874560210264
0.11398963661925003
0.11385161401131112
0.11371592313489434
0.11358240500830494
0.1134516425644235
0.11332363580324999
0.11319886166986849
0.11307644576495819
0.11295845485055009
0.11284367006698483
0.11273285982578679
0.11262512323068614
0.11252197060778225
0.11242242156995805
0.11232838389754965
0.11223741987123861
0.1121514902652594
0.1120699856497823
0.11199309150345117
0.11192051635982582
0.1118535585694128
0.11179142322373861
0.11173185808212856
0.11167714188220654
0.11162616175210974
0.11157902367963453
0.11153453530207079
0.1114935445217902
0.11145578636930167
0.11142163180189271
0.11138874908804124
0.1113595759470659
0.11133265504676527
0.11130758893290271
0.11128456308412193
0.11126283558584778
0.1112436517946887
0.11122703820759378
0.11121272985507179
0.1111997198530564
0.11118832616493704
0.11117982064427125
0.11117377933987303
0.1111695928219129
0.11116604223073155
0.11116590974598595
0.11116757905378018
0.11117046722123368
0.11117444176360088
0.11118072154054111
0.11118774323205653
0.11119722913983959
0.11120793390728201
0.11121975154658721
0.1112337419357198
0.11124818277298737
0.11126333902788099
0.11127958165768838
0.1112977585647811
0.11131469011526542
0.11133281402845997
0.1113502490209775
0.11136818745552818
0.11138607289618067
0.11140334890700351
0.1114191145917268
0.11143437683441691
0.11144791677541456
0.11145981390556711
0.11146810745064004
0.11147438722758024
0.11147830877604921
0.11147804380655807
0.11147324785876829
0.11146524578013565
0.11145236826286586
0.11143419135577314
0.11141098002834858
0.11138387364940411
0.11134971908199516
0.1113100001552721
0.11126381597296506
0.11121315380625761
0.11115610587481348
0.11109193026405746
0.11102250825737674
0.11094765437612748
0.1108664677240398
0.11077979620348535
0.11068912364361458
0.11059264825188762
0.11049195984525148
0.11038602504269056
0.11027783799945494
0.11016339767622815
0.11004678460317402
0.10992609099995619
0.10980216476894632
0.10967519138878833
0.10954495888388915
0.10941250063526434
0.10927641230461088
0.10913807173328256
0.10899737293348308
0.10885468686249998
0.10871009301118059
0.10856361787647412
0.10841473151939816
0.10826438783012086
0.10811152693067769
0.1079575531593717
0.10780318193382894
0.10764663795845884
0.10748895461427677
0.10733021139213011
0.10717125619439052
0.10701084366444963
0.10684955673518798
0.10668824330897717
0.1065267179071735
0.10636392065181223
0.10620189180797536
0.10603978347329114
0.10587714519962456
0.1057145864168054
0.10555131221636009
0.10538840897320244
0.10522505528190981
0.10506109216078752
0.1048963076342427
0.10473059571447887
0.10456406238929244
0.10439739657936045
0.10422906146163427
0.10406014341102753
0.10389098688787876
0.10371949863320788
0.10354933522599274
0.10337668110556084
0.10320468940885677
0.10303261822130542
0.10285874524121419
0.10268643558112076
0.10251319852780832
0.10234035892873257
0.10216606199745555
0.10199380533126037
0.1018205682779479
0.10164825861785448
0.10147634641199779
0.10130393076410789
0.1011327604728264
0.1009618021571378
0.10079044638721253
0.10062012399830272
0.10044993409413848
0.10028104254048087
0.10011315787088962
0.0999444782928249
0.0997761961689969
0.09960931838347202
0.09944350047591169
0.09927622523615008
0.09911059280723357
0.09894564929899403
0.09877985788838288
0.09861555030692212
0.09844959991461623
0.09828415296434354
0.09811867951712175
0.09795225217973176
0.09778526840641041
0.09761807265749614
0.09744820071672128
0.09727962712645304
0.09710946371923791
0.09693895585168429
0.09676818301463952
0.09659536991251291
0.09642353719750357
0.09625117454351187
0.0960774870420645
0.09590451495824322
0.09573125140798164
0.09555827932416036
0.09538581068237223
0.09521373949482084
0.09504222474320087
0.0948725382810698
0.09470603145283249
0.0945402400422213
0.09437738979296185
0.09421756019590145
0.09406165214731012
0.09390924169600187
0.09376120324129758
0.09361658289302913
0.09347728843153269
0.09334204800325084
0.09321205397089376
0.09308778327954542
0.09296958038954438
0.09285617344733312
0.09274909927596027
0.09264724500356304
0.09255304834946
0.09246311770416442
0.09238103015580683
0.09230421550032307
0.09223259424686582
0.09216701429780676
0.09210750215009494
0.09205228250813975
0.09200172632922875
0.09195609858285306
0.09191388894291322
0.09187607779652644
0.0918410753267458
0.09180927898780807
0.09178021183462914
0.09175382087331084
0.09172856928080446
0.09170514597778698
0.09168243809239561
0.09166195595072989
0.09164067890059072
0.09162064720705994
0.09160074799827474
0.09158111375898069
0.09156113505934815
0.09154110336581736
0.09151998529737287
0.09149926468316513
0.0914773517062472
0.09145504127509253
0.09143050510021226
0.0914058099436373
0.09137859757689638
0.09135008685964892
0.09131842300545676
0.09128339403872701
0.09124531792284907
0.09120339974934948
0.09115859340839635
0.0911082757020274
0.09105366548990185
0.09099592863778072
0.09093310437142958
0.09086625256881298
0.09079396889162787
0.09071800213851577
0.09063763689185066
0.09055083288655062
0.09046100822905151
0.09036641412071174
0.09026781897305564
0.09016424239896595
0.09005637331911968
0.08994521861758316
0.08983030134927235
0.08971257540435539
0.08959188180113754
0.08946822053961885
0.08934188308623958
0.08921456524574305
0.08908435923779302
0.08895280188543808
0.08881976070393277
0.08868457326954918
0.08854893538703063
0.08841258208688592
0.08827455947894708
0.0881364308832117
0.0879963415132418
0.08785532475005298
0.08771293014551015
0.0875701645836797
0.08742586219880058
0.08727957254273785
0.08713224950565969
0.08698325716078727
0.08683198607829097
0.08667939014833892
0.08652488643805063
0.08636879291081545
0.0862100496886688
0.08604844479601774
0.08588567403760562
0.08571884924597899
0.08555133553367532
0.0853804832057832
0.08520833252738448
0.08503210131882206
0.08485518118958264
0.08467632678305789
0.08449508765111279
0.0843124971747628
0.08412834337841507
0.08394291772850981
0.0837559022616577
0.08356848934056885
0.08337972507507516
0.08319114628822524
0.08300259399832445
0.08281271686096792
0.08262424406191449
0.0824346583909982
0.08224573514380981
0.08205705036916346
0.08186775616468743
0.0816803432435986
0.08149168496590134
0.08130435153565986
0.08111627619084309
0.0809285453063649
0.08074041696764994
0.08055252710147703
0.08036389532072886
0.08017489258269314
0.07998467098499813
0.07979431690255752
0.07960269096655942
0.07941000515259673
0.0792158090125345
0.07902118892128641
0.07882529697648084
0.0786289280865912
0.07843062491941616
0.07823115588648008
0.07803105092676522
0.07783046902196634
0.07762824430632233
0.07742623156627125
0.07722363589333964
0.0770203248027819
0.07681788811154494
0.07661640531047616
0.07641526696974586
0.07621547997342039
0.07601672635811042
0.07581996001398406
0.07562510145019391
0.07543291907826444
0.07524200855989241
0.07505411869371947
0.07486927597669477
0.07468589059187138
0.07450687720365187
0.07433011605610719
0.07415616358516865
0.07398536425117477
0.07381713512124499
0.07365205912825992
0.07348987130272833
0.07333134005617459
0.07317582946181996
0.07302318053796968
0.0728731813090309
0.0727272626102558
0.07258428507283245
0.07244483162964133
0.07230794839051437
0.07217437727002678
0.0720439592864838
0.07191587303446295
0.07179083393159029
0.07166820605108706
0.07154912876176525
0.07143193275583054
0.07131788988684057
0.07120554282259385
0.07109664036173213
0.07098943370561371
0.07088429381152626
0.07078177711540118
0.07068077074537563
0.0705823345794142
0.07048620364802578
0.07039176852138068
0.0702992941689701
0.07020907205723427
0.07012070473193648
0.07003337078765415
0.06994879252607976
0.06986572459060492
0.06978435245987341
0.06970372224371711
0.06962555624382855
0.06954731075309259
0.06947070807320174
0.06939418488415824
0.06931880106392671
0.06924370871013541
0.06916827189600563
0.06909333852390903
0.0690181931762195
0.06894323330717378
0.06886739903880727
0.06879047839552709
0.0687124183834349
0.06863366945066578
0.06855338369484798
0.06847235602445499
0.06838939407677662
0.06830444485791462
0.0682180118099022
0.06812940601206237
0.06803984632405441
0.06794713349910178
0.06785349328093014
0.06775797177937136
0.06766056899442541
0.06756133791999056
0.06746152391267517
0.06736025257315847
0.06725829231296479
0.06715535166565385
0.06705188107936062
0.06694886094120236
0.06684448945863926
0.06674027695777081
0.06663638242029174
0.06653238189501622
0.06642904379346858
0.06632562620107357
0.06622342746833788
0.06612106975390747
0.06601974542049252
0.0659185270748741
0.06581921650959187
0.06571866058770129
0.06561932352546997
0.06552022493578069
0.06542141781253166
0.06532149781741979
0.06522242572467964
0.06512189629973814
0.0650208634327635
0.06491821425189281
0.06481490264729428
0.06471013371049444
0.06460284756352869
0.06449399809656516
0.064382922885876
0.06426946294976651
0.06415372427603315
0.06403528291349007
0.06391384739569703
0.06378933823180667
0.06366212637910658
0.06353112546268312
0.06339699790626407
0.06325950523730747
0.0631191773947956
0.06297513997940762
0.06282832038436263
0.06267787070728889
0.06252368496038999
0.06236679652468134
0.06220561558321613
0.06204133449870448
0.06187339683521499
0.061703074446305184
0.06152864503028258
0.06135153942239938
0.06117202259214673
0.060989485109695
0.060804721883517626
0.060617785907512836
0.06042920712066293
0.06023880004432409
0.06004714761137688
0.05985454128826153
0.059661246044469186
0.059466758437966706
0.05927224433451508
0.059076590862251525
0.0588807784082933
0.05868570786891029
0.058490186881392285
0.058295778765737154
0.058101370650081974
0.05790865833917018
0.05771607851300394
0.057525591945817765
0.05733550283286831
0.05714766596059363
0.056960544505945045
0.056775198346887136
0.05659168047731817
0.05641038835147482
0.05623068604257839
0.056053076992661995
0.05587798515291151
0.0557053310324796
0.055535273613060925
0.05536821034889223
0.055204591688108456
0.05504386119477817
0.0548867077895784
0.054732840006068866
0.05458297326187566
0.05443713405394789
0.0542950044188962
0.05415740576214315
0.054023516678266145
0.053894211566586005
0.05376911946981513
0.053648372872699066
0.0535326341989657
0.053420260637769904
0.05331241805487274
0.05320876198993571
0.05310971639414466
0.05301504279495754
0.05292405227169739
0.05283714227860091
0.0527546837729557
0.05267519292561135
0.05260036554131121
0.052529168239039796
0.0524614420371024
0.052397425408041105
0.05233759529693992
0.05228083883193605
0.0522282158909941
0.05217972647411404
0.05213468166061892
0.05209379686813481
0.0520564891637812
0.05202342097128595
0.05199313495844774
0.05196767139034844
0.05194642083715839
0.05192840291176034
0.051914889467711806
0.0519054035599287
0.05190021015790222
0.05189896480129382
0.051901958956543794
0.051908477206026024
0.051919022991773714
0.05193303987785543
0.05195095181545701
0.05197230835644354
0.051997559948949924
0.05202556722416425
0.05205625069123916
0.05208987531966582
0.05212524874673405
0.05216337785651023
0.05220346774052088
0.05224472349029261
0.05228688013633423
0.052330626599322715
0.052374611534853274
0.052417775064961265
0.05246181299439002
0.05250460556721039
0.05254644424986263
0.05258698458200826
0.05262604108500342
0.052662262414443335
0.052696708448292544
0.05272837230248473
0.052757200983121616
0.052782770539017365
0.052805266448815814
0.052823522846755906
0.05283785769622701
0.052848959917906085
0.052855027719253385
0.05285682951179318
0.05285457727111844
0.05284790003994151
0.05283634737012745
0.05282044920065858
0.05279931523404464
0.05277392320770795
0.05274325828849741
0.052707932555937594
0.05266720144575833
0.052621891662772056
0.05257120829850531
0.052515175200212275
0.05245501387724717
0.05238897818066331
0.052318814259407355
0.05224393918059882
0.05216442978539008
0.05208037086401835
0.05199217841858471
0.05189932515980179
0.05180252120590583
0.05170145124320241
0.05159674589908045
0.05148774539950695
0.051374733261837495
0.05125834806254573
0.05113853150834361
0.05101459732824902
0.05088805054897175
0.05075759017031021
0.05062398195409383
0.050487726692660904
0.050348082471436156
0.05020626285068912
0.0500607813515744
0.049913013165751086
0.04976189841525458
0.04960817106557533
0.049452146430407865
0.049293268073820715
0.04913200499181324
0.04896745628811553
0.04880086201994616
0.048631925421475056
0.04846064119331236
0.04828745978359306
0.048112158617944586
0.0479348754805023
0.04775591773587598
0.04757613593613219
0.04739549563523706
0.04721333705915768
0.04703090026511258
0.046848503216491165
0.04666483961370204
0.04648168475233594
0.04629845304981739
0.046115589654891556
0.04593361655745595
0.045752297934663524
0.045571435059395836
0.045392109007176815
0.04521378453963432
0.045036758422598466
0.044861428110305954
0.04468705168818157
0.04451505999147752
0.04434431365138187
0.0441753426068769
0.044008332336606434
0.04384301787107932
0.0436793197194482
0.04351737036645864
0.04335748777550005
0.04319879754725162
0.043042598032219964
0.04288801483108433
0.0427347034835062
0.04258361787965373
0.042434811013425104
0.0422871170190593
0.042141065835538616
0.04199761135303121
0.04185519025153924
0.04171515387546763
0.04157694578888493
0.04144022153145266
0.04130619996283008
0.04117392719284908
0.04104364169405171
0.04091550244813262
0.04078956244899006
0.04066587469052226
0.04054541955984645
0.04042668673086313
0.04031089506323154
0.04019780608440963
0.04008765826693949
0.039980531101668416
0.03987706051537519
0.0397766635751793
0.03967931378413159
0.03958583254765464
0.039496484835239584
0.039410104781125395
0.03932825570530984
0.03924979823898097
0.03917573926620515
0.03910578732054213
0.03903996889894101
0.03897807202580888
0.03892081211877184
0.03886736777240731
0.03881853389518878
0.03877364806338834
0.03873321371903917
0.03869670092315902
0.038665063565915966
0.03863758622968394
0.038614030441920875
0.03859513811720204
0.038580220334850424
0.038569674549102755
0.03856265285758733
0.038559685199286466
0.03856087756199664
0.03856622994571782
0.03857510642367127
0.03858729502026408
0.03860319318973295
0.038622482968688504
0.038645641302214824
0.03867147582760174
0.03870017202349304
0.03873263078615864
0.038767686249837514
0.03880560338402078
0.03884664715819957
0.0388901021547478
0.0389363658279022
0.038985199705120765
0.039036444804708734
0.03909023361141175
0.03914630115573863
0.03920472692853673
0.03926529895421311
0.039327884748022235
0.03939317323064105
0.03946087293562932
0.03953079838434324
0.03960310855847747
0.039677617979388236
0.039754909579956046
0.03983455940899509
0.03991677944209825
0.040001198721977965
0.040088400181514695
0.04017856929935232
0.040270778682271746
0.04036510782112036
0.040462245636575155
0.040561980153043194
0.04066370194069485
0.04076786144766505
0.04087453816480116
0.04098330814091736
0.04109491329058881
0.041208558705342124
0.04132466833636308
0.041443109698906175
0.04156359132653107
0.04168574226195022
0.041810039450247666
0.041936270915830486
0.04206406570141109
0.04219260240156688
0.0423227819125678
0.04245351785950015
0.042584995721007685
0.042717189000141334
0.042848878837241804
0.0429813370858666
0.04311339788025467
0.04324514071125336
0.04337622111852418
0.04350616215698309
0.043635891219849066
0.04376373899932788
0.043890500403892994
0.04401511555557983
0.044138087896421534
0.04425867551184289
0.044377646813368275
0.04449290854201757
0.04460639497507619
0.04471659578644456
0.044823590466970036
0.04492716704105972
0.04502735200566272
0.045124065869931666
0.045216487228444034
0.045305384492724136
0.045390307214636993
0.04547030150401453
0.04554653322661775
0.045617704031940064
0.045685218258284525
0.045748280997177704
0.04580675976387403
0.045859992134645616
0.0459094089447447
0.04595416229179957
0.04599372223682794
0.046029016173048824
0.04605938167673436
0.04608524269907038
0.046106122294972844
0.04612175549495056
0.04613320217696814
0.04613958794170481
0.046141071770855226
0.04613729860530129
0.046128721542872834
0.04611483184214687
0.04609589447261454
0.04607194123061477
0.04604334307343519
0.046009093117009424
0.04597059834933545
0.0459273023344819
0.04587939055109256
0.04582649204187981
0.04576982831619785
0.04570844548387854
0.045643141103090264
0.04557330574400332
0.0454998191053284
0.04542331446414929
0.045342978364128164
0.04525910227170533
0.045173143519082075
0.04508370306734512
0.04499215875784846
0.0448989053951339
0.04480371245574414
0.044706630283882484
0.044609063217852046
0.04451019250192513
0.044411133657659536
0.04431220199874967
0.044213217345941566
0.04411531641835227
0.044018080564185776
0.043922935319304406
0.0438285876325914
0.04373617687285869
0.043645779881258694
0.04355755298979122
0.04347203143682833
0.043388603142845525
0.04330808686357044
0.04323027062341015
0.0431552312635171
0.04308320460673837
0.04301411381192159
0.04294776810103308
0.04288440329691999
0.042824096240734764
0.04276679128888422
0.04271190550848785
0.042659963539138146
0.04261122770063133
0.042564794447002584
0.04252143218977624
0.04248052619973284
0.042442476580804016
0.04240632944282163
0.04237316851100448
0.04234246384637026
0.04231418630227497
0.04228830673207457
0.04226410971814294
0.04224297045213918
0.04222350844301436
0.0422062006358526
0.04219130405106025
0.042177658122266155
0.04216588817746935
0.042156259186161046
0.042148347197155385
0.04214190313913064
0.042137724570255254
0.042134799307072986
0.042134237571751755
0.042134521089107285
0.04213713898767983
0.04214121156875876
0.04214683952075074
0.04215471706372258
0.042163431910286424
0.042174094282610215
0.04218620338835567
0.04220009573877654
0.04221531028695825
0.04223295725506869
0.04225163760419462
0.04227161630382716
0.0422933438021013
0.0423171910563046
0.0423424691457601
0.04236925756131513
0.04239742381822415
0.042427285879876514
0.04245884374627223
0.042491938435716595
0.04252643746346401
0.042562817774598624
0.042600284460646926
0.042639314466692994
0.04267974881104216
0.04272161399064352
0.04276445955736211
0.042808735959332905
0.04285372777892982
0.04289988546428777
0.04294678506422092
0.04299418810618726
0.0430426245291691
0.04309092846740534
0.04314039827140264
0.043189417627264984
0.04323870195261848
0.04328764181763348
0.043336422700953794
0.043384514663597114
0.04343239465064752
0.04347860532990371
0.043523756131195294
0.043568059030115215
0.04361077211208824
0.04365216034660553
0.04369174678858302
0.043729955389206536
0.043766388694239364
0.04380125867927441
0.04383445935651523
0.043865699259521565
0.04389450144320933
0.043922005276390466
0.04394707139025306
0.04396977927564443
0.04399057938069953
0.04400891526948696
0.04402457496641379
0.04403790293181854
0.04404818374807507
0.044056079838911265
0.04406074330195547
0.044062651082291744
0.04406143222263245
0.04405706022602852
0.04404958808637815
0.044039015803681344
0.04402478694200671
0.044007431440336524
0.04398689630477256
0.043963261026162194
0.04393626063501422
0.043906531058107434
0.04387362184730689
0.04383753300261254
0.043798502996566485
0.04375661132001601
0.0437118049790629
0.043664216458452754
0.04361442869106608
0.04356172625927679
0.04350706305325299
0.04345038607909648
0.04339145686426519
0.043331308789774634
0.04326967688613366
0.04320679962588428
0.043142915481568546
0.04307897834335457
0.04301488222344592
0.04295065361879168
0.04288729941345823
0.04282397170507391
0.04276180986245062
0.04270081388558841
0.04264106326533457
0.04258266398948559
0.042526357972616675
0.04247169476659287
0.04241931029819295
0.042369549027755395
0.04232166904070497
0.04227702168144658
0.04223486503540496
0.04219604700495181
0.04216062058398534
0.04212900972369141
0.04210116143017177
0.042077632139357855
0.04205818337870759
0.04204310661466129
0.04203242834416803
0.042027022966548595
0.04202622805807516
0.04203070604247558
0.04204003296856397
0.042054659284475326
0.04207469097800609
0.04209946562542843
0.04212991061996131
0.042165681501266254
0.042206884257139754
0.0422533864028362
0.042305558895643205
0.042363242753866076
0.04242688842563979
0.042495753996389114
0.04257018392645254
0.04265012522193184
0.0427359223431655
0.042826992357273004
0.04292375921544018
0.04302577246953209
0.043133429573785444
0.04324628008006531
0.0433645889578628
0.04348830321327971
0.043616919404282875
0.04375059651256696
0.04388920205338637
0.04403249755419911
0.04418032403331049
0.04433276098156783
0.04448906648439594
0.044649690989929734
0.04481418405003429
0.04498238668301493
0.045154060416329606
0.045329178753029185
0.04550763570531725
0.04568929878844821
0.045874247493269384
0.04606184589300203
0.04625198799984971
0.046444594322965056
0.04663947938370428
0.04683613974003419
0.04703484036144595
0.04723478633946609
0.04743621614663667
0.04763852035312802
0.047841910934533084
0.04804620241220806
0.04825094433801797
0.0484562426997593
0.048661806030991794
0.04886795229510478
0.04907412505616691
0.04927950290875558
0.049485172227784514
0.049690311607831175
0.04989470907330259
0.050098285133351454
0.05030096029713042
0.05050209863786074
0.05070193862808442
0.050900082813564757
0.05109573628582832
0.05128998541978878
0.051481955816125385
0.051670985051110244
0.051857868033216806
0.05204241928380125
0.05222402937303396
0.0524028042887114
0.05257911498812116
0.05275240503533183
0.05292259493949607
0.05308947272502097
0.053253541833939703
0.05341443130896465
0.05357155821721533
0.05372592944275805
0.05387624663508621
0.054023039733182086
0.05416604376755455
0.054304887780916
0.054440181203096086
0.054571526579858066
0.05469889741425281
0.05482232020322948
0.05494237787966857
0.055058514007638656
0.055171735471206115
0.055281909785625374
0.055389646380726076
0.05549491875955911
0.05559767392822623
0.05569785889282922
0.055796798500823835
0.05589348586814366
0.05598882189105865
0.0560834159993984
0.0561763937938422
0.05626839120116871
0.05636078606273196
0.05645283646395671
0.0565449928529779
0.0566376261870832
0.05673073646627255
0.056824933120375586
0.05691981869515562
0.057015658160103795
0.05711290196335504
0.05721200055304433
0.057312344499342
0.057414145777841
0.05751896770853908
0.057625034995845544
0.05773319554213207
0.05784458871621063
0.05795839311265862
0.05807550962774595
0.05819583227367618
0.05831952003214398
0.058446996854335194
0.05857828923719894
0.05871257577531266
0.05885136679477588
0.05899423834440278
0.05914105793944781
0.05929209054940204
0.05944640878104655
0.0596049665245494
0.05976786976770708
0.05993376716611472
0.06010443401536303
0.06027846597714893
0.060455227124693645
0.06063625428104581
0.060820461071291805
0.061007264562551004
0.06119793660838098
0.061390966882682155
0.06158609041596341
0.06178381065025792
0.06198333267709224
0.0621842325452805
0.0623864042670263
0.06258902643690706
0.06279289396339614
0.06299710595022379
0.06320137093094963
0.06340505297879498
0.06360942394731729
0.06381217860194359
0.06401374089385974
0.06421429630170952
0.06441262596583366
0.06460963078250206
0.0648037739286661
0.06499590330669736
0.065185118020326
0.06537125908785738
0.06555459147878254
0.06573424079378076
0.06590938562742948
0.06608047642786363
0.06624830810355667
0.06641105236501968
0.06656913316343843
0.06672210005067807
0.06686979404504385
0.06701229463738317
0.06714851545278225
0.06727901292717255
0.06740426400563813
0.06752251988953739
0.06763478746293673
0.06774035130821003
0.06783987384908516
0.06793383203064617
0.0680203180725568
0.06810134574294982
0.06817627911504642
0.06824639004240414
0.068309611762992
0.0683681965174848
0.06842113742181614
0.06846907040276475
0.06851196896338158
0.06855009807315775
0.06858359021683885
0.06861236590357749
0.06863658411506841
0.0686564303299554
0.06867246098416983
0.06868438461127147
0.06869318159837759
0.06869869296379348
0.06870068023497707
0.06870075972582441
0.06869795104921825
0.06869270465329351
0.06868502053805023
0.06867550813331803
0.0686637964818093
0.068650336031659
0.06863560372795115
0.06861967906153317
0.0686029064927435
0.06858467659175256
0.06856695013279476
0.06854771334773743
0.06852929796810267
0.06851027315863825
0.06849122185222471
0.0684718525824218
0.06845319873024502
0.06843515430789783
0.06841724237029626
0.06840004585032074
0.06838361774186957
0.06836869995951796
0.06835558396970615
0.06834355435480804
0.06833284958736567
0.06832389361856486
0.06831583854603397
0.06831059215010923
0.0683056372206248
0.06830304051961153
0.06830192764774871
0.0683029610287642
0.06830614066265797
0.06831130756773533
0.06831880620433482
0.06832839809991437
0.06834106364159123
0.0683551335215712
0.0683725155201905
0.06839289167405975
0.06841491063877413
0.0684395528014509
0.0684680900156475
0.06849925042780651
0.06853321951657164
0.06857034174228147
0.06861016665680097
0.06865404560453504
0.06869956736311424
0.06874943462134826
0.06880290546466189
0.06885844307000648
0.06891731929093955
0.068980223048138
0.06904620045143382
0.06911564895506365
0.0691883300864855
0.06926350193112416
0.06934214487609683
0.06942357000072653
0.06950833374094476
0.06959532322488855
0.0696848299189983
0.0697774897500527
0.0698721368522907
0.06996911568605078
0.07006726038557194
0.07016646496305769
0.07026808076291291
0.07037017350785214
0.07047361759719625
0.07057703518959123
0.07068138017520527
0.0707856191730228
0.07089075906711026
0.07099521004052074
0.07109910457799978
0.07120326408497
0.07130750308278755
0.07141041723314936
0.07151296042622357
0.07161452323218052
0.07171587406254457
0.07181621800884225
0.0719156080649718
0.07201425620652611
0.0721120564457088
0.07220930024896002
0.0723054841742467
0.07240227752936298
0.07249920336922487
0.07259528130671504
0.07269318753369418
0.07279228612338347
0.07289164968256391
0.07299286802818238
0.0730956496937986
0.07319994168551441
0.07330775777146248
0.07341679271706976
0.07352845086063943
0.0736428646869171
0.07375968973556415
0.07387852855234396
0.07399993757318787
0.07412351934385922
0.07424972431249292
0.07437791655231024
0.07450844052364967
0.07464073979057977
0.0747750793225917
0.07490973681799304
0.07504736197169525
0.07518572903997262
0.0753264278397721
0.0754676565785539
0.07560991869835115
0.07575382362899355
0.07589907990404075
0.07604478662722294
0.07619218915514846
0.07634139347561382
0.07649054480218091
0.07664088849145821
0.07679184161056514
0.07694404008628042
0.07709745742165504
0.07725060978753845
0.07740468954664091
0.0775597231959115
0.07771443888179272
0.0778692605554704
0.07802434719863924
0.07817911587841865
0.07833263920158968
0.07848610953086253
0.0786384404913234
0.07879032100364931
0.07894098265631597
0.0790905314371198
0.07923811944368915
0.07938425011805718
0.07952894995717297
0.0796732523420521
0.07981482554117238
0.07995581580741212
0.08009487179636651
0.08023199350803549
0.08036943318309388
0.08050530953815446
0.08064121239016422
0.08077618784895489
0.08091240866435398
0.08104759609873763
0.08118363143549287
0.08132001123258668
0.08145655001137514
0.08159338025660386
0.0817321712760671
0.08187104178637768
0.08201083968990727
0.08215233339818019
0.08229562889899292
0.08243910987844948
0.08258407468705646
0.08273131823328732
0.08287869426426374
0.08302853451150782
0.08317901068553066
0.08333081170700923
0.08348412305458737
0.08363931568555268
0.08379509124939845
0.08395327803561368
0.08411109386454134
0.08427079097685616
0.08443130949459346
0.08459161603673793
0.08475406883176065
0.08491524977322588
0.08507722562316454
0.08523933395784877
0.08540043540846665
0.08556060946586551
0.08572070403241702
0.08587987120574951
0.08603755454993159
0.08619404553140347
0.08634865522948823
0.08650085370520355
0.08665090592804052
0.08679825546206785
0.08694295530118368
0.08708413104606723
0.08722228613875171
0.08735630770737428
0.08748675218786636
0.08761332811378769
0.08773624746073114
0.08785431786598663
0.08796738034785939
0.08807601783922998
0.08817948842552321
0.08827826905182312
0.08837209474863855
0.08845934920207353
0.08854233764670105
0.08861947026557415
0.0886909060403876
0.08875624751690467
0.08881628960359879
0.08887079382792788
0.088920449110569
0.08896332117423669
0.08900264264672303
0.08903549886362534
0.08906414206561843
0.08908745938083942
0.08910645769335475
0.08912081903977495
0.0891305964139983
0.08913533936788984
0.08913690268788764
0.08913343158755359
0.08912667486552932
0.08911628806147631
0.08910243015708927
0.08908528663101205
0.0890648044893463
0.08904135468937971
0.08901673902365208
0.08898867875453953
0.08896030052203759
0.08892998801225027
0.08889715829229705
0.08886310971268457
0.08882715335273583
0.08879119699278706
0.08875240545928301
0.08871533622747142
0.08867257015160017
0.08863242727369129
0.08859016463985321
0.08854663015245763
0.08850187680540275
0.08845603708343419
0.08840961442858508
0.08836247635610989
0.08831340400634932
0.08826382821455556
0.08821253012106929
0.0881603046343641
0.08810675430020312
0.08805179962773906
0.08799501666578609
0.08793717382586853
0.08787824461103723
0.08781788456095377
0.08775678259629509
0.08769454126282446
0.08763142553003306
0.08756740890097175
0.08750185544886178
0.08743654046929383
0.08736876127345825
0.08730010767830182
0.08722946681196181
0.08715546083308422
0.08708121638166459
0.08700318286652159
0.08692342704968606
0.08683943172099223
0.08675307816382716
0.08666463134768199
0.08657160055933999
0.08647578759134095
0.08637613256572026
0.08627470224450887
0.08616900591449
0.08606108384074551
0.08594889575819353
0.08583469390750881
0.08571776287106525
0.08559887106038727
0.0854778329968309
0.08535496664378565
0.0852305899646409
0.08510552436481911
0.08497969035347301
0.08485375035433047
0.08472754538569675
0.08460136691401218
0.08447561239351341
0.08435160667165621
0.08422783942234109
0.08410619192895513
0.08398677017929478
0.08386965366420747
0.08375603474640327
0.08364334322181811
0.08353502369383685
0.08342887691568306
0.08332670467989646
0.08322803004139301
0.08313160764356432
0.08303953074539043
0.08294994456043338
0.0828647038751311
0.08278253683592617
0.08270450332078316
0.08263097428698962
0.08256115482607217
0.0824950714349799
0.08243349252523717
0.08237665656938598
0.08232416611318961
0.08227657759257943
0.08223428846179223
0.0821957089038811
0.0821632501412155
0.08213595828362727
0.08211367434942175
0.0820974317196144
0.08208659446742643
0.08208187801048401
0.0820845542023446
0.0820930332260613
0.08210848094739526
0.08213163928092157
0.08216086541579516
0.08219902102252044
0.08224372137567708
0.08229623832882262
0.08235699583314278
0.08242572891914655
0.08250198713869886
0.08258547902535956
0.0826773704448896
0.08277620406508773
0.082883834672392
0.08299668517867186
0.08311745827273702
0.08324514707052116
0.08337853271236498
0.08351817163419985
0.0836644877872117
0.08381660677207967
0.08397296526880599
0.0841361334814548
0.0843041771327408
0.08447669876842712
0.08465462578173287
0.08483692479164255
0.08502327783476683
0.08521318146907247
0.08540727162133827
0.08560456790444691
0.08580554726348254
0.08600925580827701
0.08621428920052715
0.08642176031209592
0.08663222557891462
0.08684274383963157
0.08705469293560068
0.08726849681800788
0.08748195624007657
0.08769562763773815
0.08790977598048383
0.08812318240865427
0.08833531698326724
0.08854628569211913
0.088754710693856
0.0889617313572898
0.08916530741733865
0.08936517390451149
0.0895609863584697
0.08975303624565364
0.08994015770030224
0.09012243021326283
0.09029932384555309
0.09047036165208902
0.09063522566948119
0.09079428685501721
0.09094682979107102
0.0910917681027289
0.09122969002226115
0.09136017689787182
0.09148180849308832
0.09159636275319626
0.09170323024836595
0.09180191283595414
0.09189249000680812
0.09197454575882677
0.0920499613753973
0.0921165720557769
0.09217549597121835
0.09222676491806059
0.0922702225643037
0.09230595634987991
0.0923339980711281
0.09235477697862389
0.09236924696253548
0.0923756698230009
0.09237489611208673
0.092368094345249
0.09235482467313233
0.09233572567221038
0.09231098547082191
0.09228140692652508
0.09224653959118495
0.09220811106588378
0.09216493428730124
0.09211918200526475
0.09206897823577696
0.0920166335128007
0.09196173183423487
0.09190541521858633
0.09184644360863649
0.09178625843841716
0.09172446755308149
0.09166234810557677
0.09159897800207385
0.09153669692317955
0.09147463311926803
0.09141255871657682
0.0913526491146283
0.09129265472244265
0.09123483837947417
0.09117846347053754
0.09112485749278343
0.09107299766397597
0.09102365769502933
0.09097665740668953
0.09093335609244615
0.0908908417375915
0.09085189122239276
0.09081468950583559
0.0907806409262231
0.09074937452626768
0.09072086380902017
0.09069415488431247
0.09067049310875297
0.09064969300369789
0.09063082717592812
0.0906155119393398
0.09060226346478241
0.0905909757644595
0.09058310617057244
0.09057785977464772
0.09057417669872075
0.09057393822617871
0.09057664091498842
0.09058093342074501
0.09058853804514093
0.09059873937055014
0.0906120673359549
0.09062677314271357
0.09064465858336607
0.0906649817433371
0.09068763663483023
0.09071185484632115
0.0907390142191638
0.09076805487539359
0.09079876483941762
0.09083185952886198
0.09086638505355855
0.0909023149165582
0.09094076198972376
0.09098018945000655
0.09102088876384686
0.09106378732446366
0.09110795773863802
0.09115369147281012
0.09119990215206633
0.09124847105979374
0.0912980998454857
0.09134960991456482
0.09140175591042272
0.09145615414695536
0.09151124130416502
0.09156828923560914
0.09162697997789836
0.0916874460157783
0.0917483889987423
0.0918112927559408
0.09187499142161273
0.09194033289812978
0.09200694622820436
0.09207599727759745
0.09214761853105473
0.09221976972349429
0.09229393468406653
0.0923703783822627
0.09244878285469332
0.09252909510746023
0.09261261349107004
0.09269766869772848
0.09278497614506169
0.09287501277815374
0.09296748713056431
0.09306229321449697
0.09315932504215532
0.09325815866235346
0.0933590855415317
0.09346324504850187
0.0935688883846225
0.0936762805193847
0.09378526247109381
0.0938963641787321
0.09400823429789473
0.09412278060891792
0.0942374594046867
0.09435359553265678
0.09447110950198084
0.09458894143469428
0.09470756827588116
0.09482590365062778
0.09494521941249162
0.09506408472622052
0.0951830295307968
0.09530200083232218
0.09542216449655773
0.09554121528893043
0.09566116697757306
0.09578148962350327
0.0959007523914689
0.09602083656485709
0.09614126519858378
0.0962610579055317
0.09638018818875178
0.09649905350248068
0.09661707091383791
0.09673450539231465
0.09685058852638648
0.09696585025503578
0.0970802375843643
0.09719364452657558
0.09730593859692405
0.09741666934727472
0.097525704292882
0.09763463325069291
0.09773969365393301
0.09784398564564876
0.09794570743330042
0.0980446205443459
0.0981421293170883
0.09823688240712276
0.09832970121987186
0.09841878396279576
0.09850664784606038
0.09859268343983604
0.09867474449124453
0.0987544738111309
0.09883173891474961
0.09890593037227102
0.09897638575996721
0.09904318456868558
0.09910592934418935
0.09916427562614012
0.09921716353657324
0.09926610340158826
0.09930945241034002
0.09934652164215162
0.09937868893837694
0.09940452346376387
0.09942368075797388
0.09943722069897151
0.09944429538438519
0.09944342098506435
0.09943661126914188
0.09942402521831235
0.09940462945156033
0.09937874193227518
0.09934607119401664
0.0993066967276321
0.0992624468226104
0.09921101624437857
0.09915362385259598
0.09909074659234661
0.09902376230498446
0.0989501802772927
0.09887198778045501
0.09878960876565711
0.09870314922069559
0.09861316558150178
0.09852021428400713
0.09842493125499041
0.09832628311343604
0.09822760847493259
0.09812612515982297
0.09802291954302088
0.09792050883469226
0.09781579289179065
0.09771160688787134
0.09760781833818874
0.09750413577630257
0.09739941983340095
0.09729592275015864
0.09719359153267733
0.09709104833960316
0.0969893530489006
0.09688885012090823
0.09678673087901986
0.0966862279510275
0.096585698526086
0.09648614948826177
0.09638567305721853
0.09628644198278366
0.09618705192665412
0.09608729091323696
0.09598782136626008
0.0958888022674181
0.09579097553128636
0.09569219490498646
0.09559391772071973
0.09549654143272288
0.09539966858675926
0.09530314020113412
0.09520788366906645
0.09511230917360947
0.09501808602255726
0.09492320044777725
0.09483027564723169
0.09473655593821272
0.09464429356139505
0.09455115678525661
0.0944586294389478
0.09436628757128278
0.09427346875853368
0.09417948408002354
0.09408594984964837
0.09399236262537494
0.09389808648042455
0.09380314791174632
0.09370730844679813
0.09360974668015748
0.09351162847758547
0.09341221192450681
0.09331316632871577
0.093212345437334
0.0931111800856138
0.0930083189291502
0.09290588172387242
0.09280140425351284
0.09269769519467758
0.09259295275482685
0.0924894291746354
0.09238413029885324
0.09228071270645828
0.09217692415677566
0.09207345357048244
0.09197191726147459
0.09187091089144907
0.09177120287193012
0.0916734556266457
0.09157761616169752
0.09148495633064312
0.09139486670365288
0.0913088576068263
0.09122653158592668
0.09114825959824159
0.0910754724790233
0.09100798474962793
0.09094590239785201
0.09089115970098088
0.09084033855257873
0.09079667158043758
0.09076135114726755
0.09073215150934306
0.09071084796225479
0.0906988183473567
0.09069428736905806
0.09069834140227262
0.09071111293174591
0.09073217800629217
0.0907630204550618
0.0908037197689021
0.09085252714917154
0.09091140337010456
0.09098018945000656
0.09105724257803234
0.09114396709248503
0.09124150236217653
0.09134807309151617
0.09146346730491108
0.09158935431015539
0.09172348186657438
0.0918672543124712
0.09201974425462675
0.0921808986991429
0.09235037318568103
0.09252872415017264
0.0927143882726199
0.09290699459573529
0.09310765599138152
0.0933147031517644
0.09352816257383309
0.09374641794369155
0.09397105907828666
0.09420031068202776
0.09443427874271128
0.0946712144616957
0.09491228370474195
0.0951559761457506
0.09540237127556897
0.09565019724063951
0.09590003697384279
0.09615181098433145
0.09640430041244624
0.0966562334046296
0.09690925277172663
0.0971619806723834
0.09741351621033002
0.09766404486421029
0.09791417606385383
0.09816133960519653
0.09840688683264323
0.09865113570958327
0.09889090660212292
0.09912951162890155
0.09936342669568682
0.09959445359501862
0.09982087002520444
0.10004254350149872
0.10026010995068017
0.1004734633849524
0.10067992761245476
0.10088201984335321
0.10107817675764998
0.10126789491331181
0.10145204870965951
0.1016300022199144
0.10180178194102554
0.1019670434126544
0.10212586612564842
0.10227891250373541
0.1024243807543756
0.10256309228299144
0.10269663690652994
0.10282098708872563
0.10293977291160719
0.10305098060704192
0.10315564355604533
0.1032523839172634
0.10334178462357667
0.1034239251658325
0.10349806362945566
0.10356488893512314
0.10362479853707167
0.10367625561225256
0.10371915417286938
0.1037554019992584
0.10378264086294842
0.10380142719987077
0.10381308585748131
0.10381618600052774
0.10381040966562069
0.10379718768801241
0.10377506273550159
0.10374528016469654
0.10370720404881863
0.1036598540007505
0.10360542926726873
0.10354196907413883
0.10347132820779882
0.1033919963421492
0.10330577526972967
0.1032110221796952
0.10311012179746613
0.1030020142450778
0.1028878123943931
0.10276725127592085
0.10263985394457699
0.10250736919900306
0.10236860467648895
0.10222361337093286
0.10207456803216221
0.10192115069678764
0.10176148008142195
0.10159860333521338
0.10143005624189427
0.10125764059400437
0.10108087944645965
0.10090115064061411
0.10071747378935043
0.10052974290487221
0.10033891187734753
0.1001457756152499
0.09995006914908809
0.09975195146055686
0.09955123707101242
0.09935039019672234
0.09914808599023102
0.09894464241492772
0.09874151680301381
0.0985388416392348
0.09833587500901558
0.09813481615913262
0.09793407527263905
0.0977368054864795
0.097541390486758
0.09734931410262494
0.09716012588594539
0.09697472673298926
0.09679229523833396
0.09661463319451936
0.0964399123120565
0.09626974890484134
0.09610326857355315
0.09594100125717425
0.09578178108994355
0.09562812528202691
0.0954769866842762
0.09533096199770462
0.09518816993892508
0.09504929942861454
0.09491413849118
0.09478398547712819
0.0946571445817157
0.09453470217985632
0.09441559839358538
0.09430121106425686
0.09419053330780441
0.09408433353575235
0.09398327417182858
0.0938866662953561
0.09379493385752073
0.09370812985222067
0.09362678421843833
0.09355079096837712
0.09347930219966542
0.09341411970484305
0.09335399812730164
0.09329883147924467
0.09324994460812788
0.09320731101700218
0.09317008280349592
0.09313979679065774
0.0931148366645916
0.09309618281241479
0.09308372924633086
0.0930784298565079
0.0930782443778641
0.0930855840327689
0.09309893849512273
0.09311809578933275
0.09314435426590545
0.09317676003467285
0.09321465067190697
0.09325858261353928
0.0933078934358419
0.09336345753813562
0.09342410905465932
0.09349088136642858
0.09356194618395443
0.09363852236689618
0.09372111335728693
0.09380812933817988
0.09390073617533602
0.09399888087485722
0.09410060266250884
0.09420984958370907
0.094322488114396
0.09444032004710948
0.09456273595201975
0.09468952385353396
0.09481954438284022
0.0949549702897659
0.09509368181838179
0.09523446010902858
0.09537886848170414
0.09552635050047702
0.09567555482094235
0.09582587201327052
0.0959783619554261
0.09613111686707282
0.09628556758346288
0.09643932937917594
0.09659332964743106
0.096745210159757
0.09689820354394574
0.0970488916935615
0.09719833448656888
0.09734557803279971
0.09749141724072748
0.09763306993069513
0.09777302681591939
0.09790834673504858
0.0980410169592663
0.09816753989128937
0.09828878993043866
0.09840519102789987
0.0985149943850315
0.09861780254759688
0.09871313857051184
0.09880092296292914
0.0988808112645102
0.09895230003322189
0.0990136139734735
0.09906660787170304
0.09910892349943935
0.0991410907956647
0.09916202338546538
0.09917238369256925
0.09917174776579052
0.09915966515699416
0.09913581790279086
0.0990991196282669
0.09905229951918106
0.09899238991723255
0.09892166956004521
0.09883836315202833
0.09874559733317748
0.09864082839637763
0.09852554017077919
0.09839869927536676
0.09826213399962916
0.09811446650221246
0.09795699513362334
0.09778858052504978
0.09761060051784581
0.09742318759675694
0.09722689819771464
0.09702130836953304
0.09680705403899087
0.09658485062371436
0.0963547776145507
0.09611903425827645
0.095874917866082
0.0956252636115225
0.09536967404036133
0.09510907654581743
0.09484370960043291
0.09457373218590238
0.09430242992391612
0.09402582827210691
0.09374814024538403
0.09346790851154606
0.09318759728686078
0.09290704758963347
0.09262461660901904
0.09234419939653729
0.0920642326321905
0.09178519326106274
0.09150856511230443
0.09123405671947526
0.09096225101545585
0.09069362494533019
0.09042897341757174
0.09016683909997918
0.08990918276678705
0.08965730276850195
0.08940921183394024
0.0891675331610643
0.0889296435519118
0.08869938506410434
0.08847431997832338
0.08825593212371934
0.0880427111741927
0.0878367238917744
0.08763799677341351
0.08744520497165438
0.08726022976988407
0.08708140186030841
0.08691232482800698
0.08675074643230506
0.08659645469760967
0.08645069498052924
0.0863134407841147
0.08618485109006065
0.08606386602040256
0.08595151895615588
0.08584892276918345
0.0857533217767773
0.08566733917689985
0.08558861674107983
0.08551879728016237
0.08545687391008112
0.08540282013388699
0.08535788130818832
0.0853196727075648
0.08528983714286155
0.08526779168119804
0.0852528209049482
0.0852456667286872
0.08524590520122924
0.08525305937749024
0.0852669702757755
0.0852877968777797
0.08531418783909804
0.08534722953464415
0.08538580909255528
0.0854301119914752
0.08547989975886189
0.08553477494047858
0.08559410160954657
0.08565880715928487
0.08572841464460941
0.08580075131569276
0.08587817540100617
0.08595869962936598
0.08604221801297574
0.08612949896335988
0.08621964158424834
0.08631227491835361
0.08640766393516684
0.08650570264689154
0.08660617907793482
0.08670933170083867
0.08681449809187519
0.08692125429985866
0.08703111065088855
0.08714200038293392
0.08725575178548367
0.08737236485853783
0.08748932239193047
0.08760890312328551
0.08773131902819581
0.08785527175615473
0.08798224513631278
0.08811155024799287
0.08824313409729691
0.08837768560490178
0.08851435686843581
0.08865516165603175
0.08879763575142195
0.08894408438917935
0.08909177838354515
0.08924440081044631
0.08939890452073458
0.08955690582830605
0.08971914664773585
0.08988342773224749
0.09005110042624583
0.09022285365040782
0.09039715058168488
0.09057470663770303
0.0907553098428694
0.09093784732532112
0.09112414737454713
0.09131230221021124
0.09150249731095711
0.09169566007000386
0.09188940576193118
0.09208545668843145
0.09228330940747154
0.09248253996786558
0.09268240645503838
0.09288317383848108
0.09308603448090386
0.093288285693497
0.09349263016507017
0.09369602074647523
0.09389980878211703
0.09410203349776104
0.0943052650974714
0.09450658891684553
0.09470486558707143
0.09490202938543453
0.0950952186414304
0.09528501628793959
0.09547115735547095
0.09565287343250013
0.09583019101597623
0.0960027126516626
0.09616921947989987
0.09633013545187394
0.0964858315248724
0.0966355127904218
0.09677793389191376
0.09691375725307613
0.0970425854196722
0.097163040550348
0.09727716291018537
0.09738230280427282
0.09748060648548866
0.09757104057281742
0.09765334009676792
0.09772861792920304
0.0977970860457156
0.09785723412020617
0.09791136738724766
0.09796012177361885
0.0980013775233906
0.09803802280401631
0.09806687798160232
0.09809170562292287
0.09811202878289388
0.09812604566897562
0.09813616750353749
0.09814183785064805
0.09814403709742457
0.09814215581403743
0.09813619400048659
0.09812649611711058
0.09811359210289165
0.09809793240596486
0.09808017945005792
0.09805861093347853
0.09803542610300307
0.09800937960202322
0.09798282965901024
0.09795294110040877
0.09792212514858827
0.09789024931880319
0.09785665118732562
0.09782191368703616
0.09778619579962941
0.09775066339086654
0.0977129582322762
0.09767602148521017
0.09763670001272384
0.09759764350972867
0.09755747413487066
0.09751658934238654
0.09747554556820773
0.09743360089775902
0.097391576736463
0.09734825422466034
0.09730495820980677
0.09726123824376738
0.09721714732044039
0.09717390429948505
0.09712952190971781
0.09708535149554345
0.09704176401424962
0.09699870647193815
0.09695607288081244
0.09691370425917792
0.0968712296497469
0.09683007988777166
0.09678887713189818
0.0967482838058543
0.09670853838218214
0.09666860747986616
0.096628862056194
0.09658911663252182
0.09654958318444255
0.09650885737365314
0.09646797258116906
0.09642623988631327
0.09638397725247519
0.09634216506677207
0.09629884255496941
0.09625464564384592
0.09620981280594373
0.09616275422431586
0.09611709998099109
0.09606919349699156
0.09602086306180621
0.09597147274865626
0.09592187045991338
0.09587173823218818
0.09582104956853166
0.0957692215360631
0.09571834739376277
0.09566675783383626
0.09561567171594294
0.09556477107669346
0.09551413540693514
0.09546392368836262
0.09541469235690733
0.09536503707426625
0.09531649466348796
0.09526768728321852
0.09521933035108406
0.09517160934572835
0.09512380884952527
0.09507571688688195
0.09502855231745763
0.09498059283955984
0.0949341966816599
0.09488721759087938
0.09483912562823603
0.09479148411372766
0.09474339215108435
0.09469474375250958
0.09464442604614064
0.09459384337028048
0.09454182985916816
0.09448780257992316
0.0944325299440697
0.09437542901872736
0.09431644680999787
0.09425542433618654
0.09419185815526014
0.09412638419399752
0.09405807505917964
0.09398799062877104
0.0939149915339598
0.09383981968932115
0.09376266057349891
0.09368354068344219
0.09360253950999825
0.09351952456842165
0.09343544974888048
0.09334994409408708
0.09326102033285787
0.09317082471807114
0.09308028464294595
0.09298841972036496
0.09289459402354955
0.09279859557690669
0.0927023321607727
0.09260323357108341
0.0925029161217348
0.0924014063096761
0.09229928706778774
0.09219473010658084
0.09209014664842478
0.09198474178484616
0.09187944290906404
0.09177337562175754
0.09166709635885815
0.09156081709595874
0.09145673707983587
0.09135188865218868
0.0912497164164021
0.09114802112569959
0.09104924049939966
0.09095255313207981
0.09085885992000997
0.09076808137234271
0.09068032347687456
0.09059661961462097
0.09051731424592041
0.09044169195314682
0.09037073312341747
0.09030361635130972
0.09024145450868643
0.09018337319622682
0.09013003483765875
0.09008157191772782
0.0900374280005026
0.08999900742428617
0.08996315705213387
0.08993337448132885
0.08990769893763664
0.08988599793631163
0.08986848345294673
0.08985557943872784
0.08984540461026777
0.08984090012891824
0.08983893935468376
0.08984233096417048
0.08984821328687394
0.08985807015194466
0.0898712656326038
0.08988840915868104
0.08990785791933131
0.08993091026506118
0.08995700975993923
0.0899861829009146
0.09001848268188553
0.09005385610895378
0.09009230318211929
0.09013424785256798
0.09017908069047022
0.09022672220497858
0.09027799380151572
0.09033260401364128
0.0903902083810168
0.09045141633347195
0.09051609538626114
0.09058363610955474
0.09065507188436817
0.09072915735409309
0.09080753532957465
0.09088917242979727
0.09097494305408181
0.09106439675429331
0.0911554137745026
0.09125109425775609
0.09134990138100509
0.09145183514424966
0.09155681605664243
0.09166336028903296
0.09177353460345224
0.09188524574092014
0.09199867918008052
0.09211399390262806
0.09222917614043001
0.09234533876534923
0.09246219031094538
0.09257814096027171
0.09269289924688782
0.09280786950909685
0.09291979262215769
0.09302970196708582
0.09313656416286573
0.09324022022780276
0.09334037869545662
0.09343608567565923
0.09352768562874902
0.09361316478659329
0.0936938214996987
0.09376841041145682
0.09383730247915524
0.0939001002485573
0.0939562472837315
0.09400600855416906
0.09404840367275273
0.09408385659066827
0.09411210233842465
0.0941336708550041
0.09414864163125393
0.0941564582312428
0.09415632574649722
0.09415115884141985
0.0941387052753359
0.09412116429502192
0.09409758201030977
0.09406774644560652
0.09403367136904492
0.0939938729514745
0.09394986151899483
0.09390084216313249
0.09384766278625913
0.0937900319219345
0.09372816154575148
0.09366266108753973
0.09359432545577269
0.09352079642197916
0.09344575706208613
0.09336608073609798
0.09328401968468948
0.0931981960665067
0.09311099460696998
0.09301992459286244
0.09292604590214879
0.09283060389143732
0.09273073689022371
0.09263036644697696
0.09252572999492267
0.0924175694486361
0.09230871998167263
0.09219642591132414
0.09208201208504652
0.09196608793266936
0.09184682516470369
0.09172652901572259
0.09160440457725257
0.09147886203234673
0.09135305451794976
0.09122480928423421
0.09109545117865585
0.09096423828663945
0.09083103812343944
0.09069770547549384
0.09056310097399076
0.09042637671655848
0.0902898114408209
0.09015144437254351
0.09001291832257141
0.08987431278175202
0.08973496532635736
0.08959532640452245
0.08945743628132914
0.08931800933508716
0.08918011921189382
0.08904196411920937
0.08890614075804698
0.08877169523823858
0.08863796513605629
0.08850492395455095
0.08837543336422701
0.08824859246881456
0.0881238978262804
0.08800206485425063
0.08788431241238452
0.08776891819898966
0.08765903535101066
0.08755182869489223
0.08745018639808795
0.08735307507958227
0.08726105117530661
0.08717485659983626
0.08709327249351181
0.08701863058785547
0.08694904959948006
0.08688580138194307
0.08682893892914277
0.08677769382955479
0.08673349691843132
0.08669568577204453
0.08666367745751387
0.08663778993822872
0.08661908309215369
0.08660731844674675
0.0866013301362468
0.08660156860878883
0.08660914673623565
0.08662382604604522
0.08664425519381272
0.08667250094156911
0.0867068939815201
0.08674891814281611
0.08679677163291741
0.0868508784030098
0.08691211285241408
0.08698039549028283
0.087053606560687
0.0871348197097238
0.0872219151814641
0.08731526393319546
0.08741481297101972
0.08752085376137705
0.08763203495986271
0.08774880701461152
0.0878706399866413
0.08799941515933914
0.08813158194152369
0.08826939257386965
0.08841091277909172
0.08855704345345974
0.08870691019765292
0.08886038052692574
0.08901753393212553
0.08917699257189828
0.08933973683336129
0.0895043623782114
0.08967166411492218
0.08984034369298687
0.09001074557274401
0.09018286975419364
0.09035581534106582
0.09052958233336056
0.09070377327684113
0.09087833517760933
0.09105324153871598
0.0912279624211789
0.09140210037076123
0.09157533742407366
0.09174722313298127
0.09191693609206142
0.09208582764571904
0.09225230797700723
0.09241809938761841
0.09258147957586016
0.09274358791054439
0.09290333801675743
0.09306094187009216
0.09321798928749546
0.09337153910761563
0.0935240555467203
0.09367511465362366
0.09382408050154699
0.0939714830294725
0.0941177461885861
0.09426173061007587
0.09440486712919388
0.09454678478865267
0.09468713912811366
0.09482746697062557
0.09496707939551131
0.09510658583260063
0.0952453768520639
0.09538496278000055
0.09552534361641069
0.09566400215112832
0.09580358807906497
0.09594375693988218
0.09608408478239407
0.09622528702422675
0.09636648926605944
0.09650753252619743
0.096649874136842
0.09679205676579196
0.09693471633982594
0.09707870076131564
0.09722268518280536
0.0973665106226004
0.0975116609098512
0.09765514188930773
0.09779888783825544
0.09794213034516992
0.09808539934903356
0.09822689305730647
0.09836854574727412
0.09850958900741211
0.09864959888653459
0.09878865487548899
0.09892749888885045
0.09906560098763671
0.09920248422676366
0.09933862555131544
0.09947455490027422
0.09961024577669103
0.09974416135751712
0.09987876585902024
0.10001318488187953
0.10014646453592686
0.10028038011675297
0.10041426920062997
0.10054924465942068
0.10068358419143263
0.10081789722649546
0.10095303166698083
0.10108840458000824
0.10122388348083214
0.10135915040606311
0.10149608663908832
0.10163368529584135
0.10177205236411875
0.10191079038968376
0.10204997886338371
0.10219176403809688
0.10233280729823488
0.10247583782955648
0.10261987524494441
0.10276563496202486
0.10291264003571368
0.10306020154533388
0.10321006828952708
0.10336250523778444
0.10351698245112358
0.10367395037767957
0.10383264060592799
0.10399458995891754
0.104160672835969
0.10432831903301823
0.10450004576023111
0.10467463415794845
0.10485370054006611
0.10503637050726343
0.10522309450767527
0.10541321011757385
0.10560764473017814
0.10580568292786201
0.10600655629910116
0.10621148370355488
0.10641967023274974
0.10663135435922776
0.10684494626604199
0.1070608434074292
0.10727851584440717
0.1074985465098563
0.10771926609598242
0.10794107205702227
0.10816308999365504
0.10838476346994932
0.10860558904387194
0.10882665309033651
0.10904618031375252
0.10926517759818617
0.10948380392533223
0.10969880017044956
0.10991419386980367
0.1101275473040759
0.11033841002513128
0.11054797439568008
0.11075443862318249
0.11095867710695924
0.11116114029514527
0.1113598144196079
0.11155610381865022
0.111749266577697
0.11193983263573049
0.1121246753527552
0.1123078752589348
0.11248683565325603
0.1126618744991083
0.11283320377208446
0.11300077047828636
0.11316348824280022
0.11332382128189374
0.11347811301658918
0.11362678739807218
0.11377339501752427
0.11391396133257824
0.11404944023340209
0.11417985821694505
0.11430460585337747
0.11442580289862847
0.1145410911242269
0.11465033804542714
0.11475550443646368
0.11485531844377907
0.11494954159483123
0.11503801490792548
0.11512163927933172
0.1151977120202403
0.1152684058804785
0.11533385334479201
0.11539315351691092
0.11544760474734178
0.11549442485642765
0.1155368729689095
0.1155725643593671
0.11560324782644205
0.11562804897081345
0.11564816015519154
0.1156620445565277
0.11567113301007408
0.11567537252193244
0.11567537252193247
0.11567025861075333
0.11566127614500339
0.11564770970705665
0.11563083115047051
0.11561074646304151
0.1155873761539223
0.11556103818650217
0.1155334018685755
0.1155024534320094
0.1154701801479876
0.11543557513244367
0.1153999897297825
0.11536382139424084
0.11532693764107309
0.11528896751299161
0.11525173929948536
0.11521506752191048
0.11517887268941968
0.11514482410980718
0.11511263031663273
0.11508337768480999
0.11505513193705365
0.1150298008536999
0.11500937170593242
0.11499002893307864
0.11497370681242391
0.11496173019142404
0.11495256224703031
0.11494543456771845
0.11494167200094417
0.11494024116569199
0.11494135403755472
0.11494397723551714
0.11494824324432462
0.11495322467075822
0.11495945145380015
0.1149665261392138
0.11497315037649253
0.11498059601919375
0.11498647834189726
0.11499397697849677
0.11500023025848782
0.11500558264220903
0.11500982215406737
0.11501326675745227
0.11501469759270447
0.11501475058660274
0.11501233936423326
0.11500870928220455
0.11500176708153648
0.11499485137781754
0.1149827687690212
0.11496769200497484
0.11495102542398163
0.11493115271214557
0.11490802087556838
0.11488176239899563
0.11485187384039418
0.11481798424247636
0.11478104749541032
0.11474048066631562
0.11469482642299082
0.11464747637492272
0.1145943764888967
0.11453878588965388
0.11447831985177395
0.11441576055491398
0.11434943869127964
0.11427951324256574
0.11420651414775454
0.1141314747878615
0.11405309681237995
0.11397326150469711
0.11388855075837712
0.11380368103036248
0.11371640007997841
0.11362856269366291
0.11353751917650451
0.11344761502815806
0.11335545863913686
0.11326155345147407
0.1131695030502493
0.1130750414266551
0.11298246108644806
0.11288728404522778
0.11279380280875079
0.11270172591057694
0.11260811218935439
0.11251502840711418
0.11242395839300667
0.11233450469279516
0.11224528946512571
0.1121579820177925
0.11207364222876014
0.11199237608582512
0.11191201083915998
0.11183448076605013
0.11176084574446012
0.11168903901235909
0.11162030592635537
0.11155578585526085
0.11149346503094286
0.11143453581611161
0.1113786007565303
0.11132611030033392
0.11127603106650698
0.11122915796352292
0.11118572946392381
0.11114420874466092
0.11110592065319008
0.1110707856986639
0.11103631316786555
0.11100679556655169
0.11097974218150548
0.11095433160730436
0.11093183569750596
0.11091201597956811
0.11089421002976296
0.11088016664673213
0.1108668121843783
0.11085639888337617
0.11084760189627008
0.11084092466509313
0.11083718859526794
0.11083501584544053
0.11083467138510204
0.11083586374781225
0.11084012975661969
0.11084609157017054
0.11085176191728109
0.11086201623658849
0.11087240304064151
0.11088562501824979
0.1109008872609399
0.1109176863266787
0.11093676413004128
0.1109561598967933
0.11097823185540594
0.11100199961876188
0.11102722471431921
0.11105372166343397
0.11108204690203763
0.11111140552165683
0.11114291039415433
0.1111760580774969
0.11120925875473772
0.11124603652010903
0.111283185242768
0.11132314264203307
0.1113645838704486
0.11140833033343708
0.11145356062557597
0.111500884176695
0.11154998302340471
0.11160242048570289
0.11165533489308506
0.11171211785503808
0.11177136503325868
0.11183498420808333
0.1119013060717176
0.1119697476912811
0.11204208436236443
0.11211911099344113
0.11219884031332746
0.11228031843185546
0.1123675198913922
0.11245763601533158
0.1125509317731647
0.11264775162523016
0.1127470091966141
0.11284989685002682
0.112956600064112
0.11306611195480341
0.11317877698243946
0.1132946216439693
0.11341401689668053
0.11353704223142044
0.11366152489836169
0.113790406058856
0.11392111550883915
0.11405497809576709
0.11419183483794491
0.11433001642757852
0.11446994681585365
0.11461128154243191
0.11475433857070265
0.11489943586405517
0.11504498360554265
0.11519212116397703
0.11533981515834286
0.11548841004897858
0.1156365544914793
0.1157854938424535
0.1159339827452927
0.1160832400596563
0.11623297431910395
0.11638111876160467
0.11653019059732447
0.1166786795001637
0.11682796331147634
0.11697716763194169
0.11712695488528754
0.11727753704710686
0.1174281192089262
0.11757928430362605
0.11773105882815547
0.11788264787404114
0.11803648916060155
0.11818805170953813
0.11834109808762508
0.11849578727655721
0.11864981404176145
0.11880392029781296
0.11895974885555702
0.11911430555974353
0.11927045208087698
0.1194247703125215
0.11958067836111283
0.11973385722394538
0.11988581722711865
0.12003732678215699
0.12018682256906257
0.12033364216410763
0.1204782890093252
0.12061927927556494
0.12075738137435121
0.1208931517416153
0.12102394068244587
0.1211520004375176
0.12127693355259384
0.1213972297015749
0.12151424022886585
0.12162690525650191
0.12173416490651849
0.12184002021823206
0.1219415565272399
0.12203882682744027
0.12213365940832208
0.12222666369971494
0.12231619689077382
0.12240469670081722
0.12249086477933847
0.12257549603481106
0.12265991531469077
0.12274253280203065
0.12282602468869136
0.1229084831943365
0.12299176310540427
0.12307565244630168
0.12315895885431855
0.12324406705487524
0.12333166596864872
0.12342032476038675
0.12351094432635937
0.12360328619402439
0.12369915215592163
0.1237987806845932
0.12390023750275372
0.12400558937243406
0.12411345845228038
0.12422450716602043
0.124342365595683
0.12446263524771496
0.12458785982923143
0.12471790685548677
0.12485314728376863
0.1249933161445858
0.12513642616675472
0.1252860014445077
0.12543878285310353
0.12559551230711744
0.1257574351631579
0.1259228556164815
0.12609259507251075
0.12626479874480775
0.12644044702048962
0.12661895696667588
0.1267997721474352
0.12698437639191787
0.12717030548385636
0.12735946720358673
0.12754913236535034
0.12774089078609402
0.12793339112141291
0.12812520253605483
0.12831897472493123
0.1285119520053341
0.12870511476438093
0.128896263755295
0.12908624688044792
0.12927596503610977
0.12946356343584242
0.12964904207964592
0.1298329309065025
0.13001417003844762
0.13019222953649895
0.130369759095568
0.13054331411226977
0.13071421943406014
0.13088221009144782
0.13104702111494182
0.13120759262657739
0.13136657432126608
0.13151919674816723
0.13166996438863032
0.13181463773079702
0.13195666137805226
0.13209471048294028
0.13222957995393453
0.13236153476052612
0.13249083987220628
0.13261617044151922
0.1327391162854118
0.1328591474649018
0.13297838373591828
0.13309470534253212
0.13321023204067262
0.13332575873881303
0.13343863574204204
0.13355257262323564
0.13366597956544685
0.13377912153816698
0.13389252848037825
0.13400514051411608
0.134118017517345
0.13423089452057402
0.1343432415848207
0.13445505871008506
0.1345669023322986
0.13467784505824215
0.13478817835435614
0.13489766374809836
0.1350050823798097
0.135110407752541
0.13521454076256204
0.1353148582119106
0.1354131883900756
0.13550698758994195
0.1355975276650671
0.1356846231368074
0.13576639272177563
0.1358439227948855
0.13591612698122324
0.13598332324417836
0.1360464389769698
0.1361040963382435
0.13615632182494875
0.13620465226013412
0.13624686190007398
0.13628567993052715
0.13632036443691836
0.1363496435656902
0.1363753986002298
0.13639720558935126
0.1364150910300037
0.13642939938252568
0.13643938873234196
0.13644667539334857
0.13644998751198786
0.1364496430516494
0.13644437015877556
0.1364357586503133
0.13642229820016294
0.13640451874730689
0.13638300322462568
0.13635748666262826
0.1363277570857214
0.13629466239627705
0.13625608283836596
0.13621366122283318
0.13616745054357696
0.13611718583110624
0.1360634235213523
0.1360056866692312
0.13594450521372517
0.1358817339412723
0.1358134513034035
0.13574405579367185
0.13567140115919912
0.13559641479320428
0.13551801032077365
0.1354378040558032
0.13535606096778413
0.13526983989536462
0.13518375130769067
0.13509461557086855
0.13500306861167702
0.13490987884164032
0.13481464880652178
0.1347174315002197
0.1346187303647671
0.13451756501304682
0.13441295505794168
0.13430651681334763
0.134197428873842
0.1340863271662038
0.13397148938874034
0.1338537104499251
0.13373293735585992
0.1336099385180691
0.13348285915011462
0.13335244116657166
0.13321892303998226
0.13308362961780218
0.13294391120511995
0.1328004567226125
0.13265541242315823
0.13250737396845394
0.1323555199530771
0.132204063391937
0.1320503015962239
0.13189526794695333
0.13174015480683537
0.13158575708434353
0.13143117388320796
0.1312781010081718
0.13112757184025076
0.13097876497402208
0.13083377366846605
0.13069148505171962
0.13055293250479846
0.13041729462227994
0.1302866381661949
0.13016091014264528
0.13003926264925933
0.12992355047247506
0.1298123692739894
0.12970858072430677
0.12960977360105783
0.12951748472729102
0.12943224404198878
0.12935519091396297
0.1292839141208442
0.12922008297042673
0.12916613518202902
0.12911971252717994
0.1290805500363883
0.12905082045948144
0.12902975538493525
0.12901682487376726
0.1290139102093646
0.12901814972122297
0.1290323520859485
0.1290548479957469
0.1290855314628218
0.1291253033834431
0.1291731303765953
0.1292293569026169
0.12929289658659415
0.12936518026377927
0.12944565149824086
0.12953380684794574
0.1296282154776417
0.1297313681005455
0.1298412774454736
0.12995661866497024
0.13007982947835403
0.13020905509918682
0.13034405705492666
0.1304849413333699
0.13063221137654993
0.1307822635993869
0.13093650234018403
0.1310964909189391
0.13125881122921623
0.1314239932099978
0.13159235482467313
0.1317641345457843
0.13193670917536884
0.13211325834732066
0.13229033745825475
0.13246895339223744
0.13264865570113396
0.1328285699856233
0.13300843127621442
0.133187471161383
0.13336637856180603
0.13354417309036623
0.1337207752562162
0.13389509868444235
0.13406955459741413
0.13424136081547433
0.13441295505794165
0.13458163463600636
0.1347492278391574
0.13491592014603845
0.13508152607800586
0.1352462046167542
0.13540878989652247
0.13557174613357845
0.13573377497741534
0.13589516789447348
0.13605664030237893
0.13621872214011407
0.1363784987432762
0.13654005064202904
0.13670128457739245
0.13686344590597493
0.13702385843591586
0.13718697365466645
0.1373493469588418
0.13751166726911898
0.13767510045125894
0.13783644037441886
0.13799918463588187
0.13816097500717672
0.13832236792423486
0.13848254198163368
0.13864412037733562
0.13880238665439823
0.13895890413281928
0.13911523613259646
0.13926955436424093
0.1394218323308036
0.1395723879956738
0.13972039995342897
0.13986536476203598
0.1400083952933576
0.14014660337994025
0.140284122545846
0.14041819710836673
0.14054776718953807
0.14067442260630664
0.14079816335867273
0.140916869690707
0.14103451614477658
0.14114765811749666
0.14125603063937614
0.14136148849685298
0.14146323678145373
0.1415610105236873
0.14165586960151821
0.14174728407596418
0.1418355189165164
0.1419176594587723
0.1419995350315369
0.1420763761839698
0.1421497727330177
0.14222025461766305
0.14228649699045007
0.1423495597293432
0.14241023774281605
0.14246773612239513
0.142521259959607
0.1425742538578366
0.14262194836624317
0.14266884796617635
0.14271283290170683
0.14275469808130822
0.14279444350498038
0.14283339402017917
0.14287075471843097
0.1429062606302448
0.14294044169460288
0.14297541766743438
0.14300853885382783
0.1430416600402213
0.14307266147068562
0.14310445780962336
0.14313492930110538
0.14316460588411392
0.14319401749763128
0.14322263420267525
0.14325019102975467
0.14327801282632519
0.1433045097754399
0.14333021181608127
0.14335591385672267
0.1433794961414348
0.14340307842614694
0.1434266607108591
0.14344891814811553
0.14347011570740736
0.14349051835822574
0.14350959616158834
0.14352893893444213
0.1435490766157694
0.14356709454116742
0.14358723222249467
0.14360789984280423
0.1436275075851492
0.1436495000529144
0.14367255239864427
0.14369692959182986
0.14372289660196233
0.143750983368024
0.14378065995103262
0.14381378113742604
0.14384981698822216
0.14388797259494746
0.14393063268302225
0.1439780622219377
0.14402867139474698
0.14408352007941458
0.1441439331233963
0.14420752580127175
0.1442785376248993
0.14435405392987646
0.14443301483823853
0.14451886495337044
0.14461133930578102
0.14470911304801454
0.14481298108854448
0.14492267845787968
0.14503953000347589
0.14516168093889503
0.14528966120311948
0.14542506061309599
0.14556681929086004
0.14571440729742938
0.14586702972433052
0.14602733626647493
0.1461932071679335
0.1463635825507415
0.1465403172013371
0.14672129136379103
0.1469096846719972
0.14710205252257047
0.1472997197629668
0.1475016265152214
0.14770724284035208
0.1479160387993766
0.14812880930076835
0.14834316961910687
0.1485604446018481
0.14878036927950078
0.14900214874359147
0.14922445814666455
0.1494480923971933
0.149673316464669
0.14989748065418
0.15012111490470872
0.1503444841857464
0.1505670585583106
0.15078592335799867
0.1510039932492133
0.15121782362856964
0.15142794443504984
0.15163647542458314
0.15183679235989092
0.15203525450876065
0.15222921217628085
0.15241813542346921
0.15260016946388774
0.15277637417550108
0.15294674955830914
0.15310997076485613
0.153267362642598
0.15341415574069386
0.15355485454049336
0.15368627940810264
0.15381081506894215
0.1539250169196269
0.154031004716086
0.15412771858035493
0.15421621839039834
0.15429385445130467
0.15436380639696767
0.15442342453247587
0.1544721789188471
0.1545140440984485
0.15454319074247475
0.15456491824074886
0.15457657689835932
0.15457949156276196
0.15457313229497446
0.15455882394245243
0.15453603656621373
0.1545055650747317
0.15446846934597103
0.15442474937993164
0.15437493511559583
0.1543182316444903
0.1542578186005085
0.15419131125823043
0.154120564404094
0.15404610797708143
0.15396873688566626
0.1538884511298485
0.15380445580115462
0.15371940059449618
0.15363196066241738
0.15354452073033859
0.15345549098131292
0.15336725614076072
0.1532787563307173
0.15319131639863856
0.15310599622248894
0.15302173592430396
0.15294012532103046
0.15286142938215955
0.1527840582907443
0.15271013180271414
0.15263911997908655
0.1525710228198615
0.15250663523351254
0.15244595722003976
0.15238845884046062
0.15233414009477536
0.1522840608609484
0.1522382211389798
0.15219635595937847
0.15215793538316205
0.15212375431880398
0.1520943427052866
0.15206837569515408
0.15204717813586224
0.15202969014944656
0.15201591173590684
0.1520061078647344
0.15199974859694682
0.1519970989020354
0.15200027853592912
0.15200610786473437
0.15201882640030948
0.1520349895392695
0.15205698200703474
0.152084273864623
0.15211766002050764
0.15215555065774178
0.15220112541021918
0.15225279446099296
0.1523121476270101
0.15237627024386788
0.15244781200647778
0.15252756782331328
0.1526144778164098
0.15270774707729376
0.1528087004534211
0.15291760291428283
0.15303551433784363
0.15315952005970082
0.15329067995781898
0.15343084881863617
0.1535789667641878
0.15373317900803585
0.15389587027560062
0.15406598068891753
0.1542432452784954
0.15442739907484315
0.1546202968643988
0.15481928895225078
0.15502596515534603
0.15524085541266694
0.15546316481573993
0.15569262839507395
0.1559303060286336
0.15617725759438333
0.15643056842792066
0.15669262325466587
0.15696183225767202
0.1572397852538861
0.1575248924263612
0.15781741874458835
0.15811709923907655
0.1584249937877903
0.1587395125737827
0.15906171547501852
0.1593897477050595
0.15972466914187033
0.16006568487697762
0.16041305987987237
0.1607644094251344
0.1611226481771662
0.1614835366241096
0.16185051936934927
0.1622214766569563
0.16259402376151008
0.16297240019486917
0.16335289638415743
0.16373577729886604
0.16412051300001268
0.16450869330454426
0.16489634367009345
0.16528558385258968
0.16567561894355923
0.16606618397351114
0.16645515918651613
0.16684492930799458
0.1672331096125261
0.1676204950085842
0.16800629058769548
0.16839182119731555
0.16877602695947985
0.16915917284367957
0.16954019897195013
0.1699206951612385
0.17029986650307097
0.17067930281439467
0.17105741427826263
0.17143552574213056
0.17181257732803384
0.17218856903597263
0.17256641553034943
0.17294240723828821
0.17331892888520925
0.1736935957456923
0.1740687925451576
0.17444398934462285
0.17481839123561474
0.1751919982181332
0.1755642803531959
0.1759349726713117
0.17630513505044515
0.1766721177956849
0.17703830563245118
0.17740210874379714
0.17776246725175815
0.1781204410342989
0.17847444027447237
0.1788249949112609
0.17917236991415572
0.179515240435701
0.17985440138437023
0.1801901177296545
0.18052238947155388
0.18084803697617458
0.18116997490791914
0.1814874083583142
0.18180007235786866
0.18210796690658243
0.18241082703496436
0.18270891771250566
0.1830014440307329
0.18328946586761058
0.18357218831466524
0.18384987634138816
0.18412252994777928
0.18439041410332976
0.18465289288126077
0.18491023125106357
0.18516513190154774
0.18541526310119133
0.18566141975846762
0.1859039198367661
0.1861441411774407
0.18638102390252684
0.18661671426490287
0.18685073531948462
0.18708390847169468
0.18731676366051536
0.18754908891035377
0.18778250053510587
0.1880164685957894
0.1882499332144398
0.18848533211037552
0.18872346019207006
0.18896166776461193
0.1892028694924038
0.18944653543646334
0.1896924271242485
0.18994049156186107
0.19018916542930334
0.19044160186351988
0.19069544263603946
0.1909506347529639
0.19120850306174897
0.19146695430341457
0.1917274988040602
0.1919877253413165
0.19225084004602624
0.19251437870192198
0.19277887124798565
0.1930458545072662
0.1933140036323078
0.19358270919328074
0.19385329603764098
0.1941265590738617
0.1944016239026222
0.1946779870818894
0.19495665549572963
0.195236092321094
0.1955170394725581
0.1957995499440199
0.19608277583310776
0.19636621369778867
0.19664983704111325
0.19693393732952197
0.19722010437996157
0.19750643041209595
0.19779217351134976
0.19807778412585803
0.19836440162443256
0.19865115160775274
0.19893726566429412
0.19922298226659887
0.19950856638415798
0.1997920307457879
0.20007554810131606
0.20035641576193278
0.20063569360560257
0.20091258672385198
0.2011865651776989
0.20145683405866963
0.20172445324472899
0.2019888927968945
0.20224829792872823
0.20250372851819468
0.20275359474834706
0.20299869152765884
0.20323848891714763
0.20347219200833996
0.20370033074021826
0.2039223751738001
0.20413779537010326
0.2043471212681101
0.20454955795934704
0.20474404556584952
0.2049316439655822
0.205112353158545
0.20528405338880876
0.2054488644123027
0.20560519641207994
0.20575490417457845
0.20589613291336023
0.206030207475881
0.20615712786214085
0.20627609916366624
0.20638765131943948
0.20649125439047822
0.20658664340729146
0.206675408186826
0.2067564888511172
0.20683041533914748
0.2068955978339698
0.20695574590846041
0.20700609011177845
0.20704928013883558
0.20708478605064937
0.2071120779082376
0.2071327455285471
0.20714493412513993
0.20714970357598056
0.20714784878954257
0.2071401646742993
0.20712426650483037
0.2071054536709589
0.20707922169133525
0.20705086995578245
0.20701668889142436
0.20698065304062827
0.20694064264746492
0.2069008972237928
0.20685956198317373
0.20681822674255465
0.20677848131888246
0.20674271043757755
0.2067079994342372
0.20667699800377284
0.2066507660241492
0.20662983343434851
0.2066149951428443
0.2066046613326895
0.20660201163777803
0.20660519127167182
0.2066131403564063
0.20663062834282206
0.20665394565804301
0.2066852120579984
0.20672469251217948
0.20677000229516576
0.20682220128492187
0.20688234935941244
0.20694885670169053
0.207023313128703
0.20710333391502972
0.20718971396914382
0.20728404310799253
0.20738208181971718
0.20748568489075606
0.2075927325651797
0.207704284720953
0.20782007638858455
0.2079398425985834
0.20806199353400245
0.20818758907280657
0.2083147744285576
0.2084430196622731
0.2085736496214089
0.20870507448901832
0.20883729426510106
0.20896924907169262
0.20910173381726654
0.2092339535933493
0.20936723324739667
0.20950157277940856
0.2096375021283674
0.20977369644681743
0.20991068567374085
0.21004820483964654
0.21018704885300804
0.2103261578358606
0.2104652668187133
0.21060517071003929
0.21074533957085648
0.21088577340116477
0.2110270021399466
0.21116876081771072
0.21131131440394826
0.21145333805120348
0.2115953616984587
0.21173738534571393
0.21188020390144258
0.21202116767073315
0.21216186647053273
0.21230230030084107
0.21244246916165832
0.21258157814451092
0.2127206871273634
0.21285688144581344
0.21299307576426346
0.21312847517423994
0.21326387458421656
0.21339847908571957
0.21353334855671383
0.21366901293618154
0.2138036174376846
0.21394034169511691
0.2140773309220404
0.21421855966082218
0.2143619081555331
0.21450843628413785
0.21465920392460094
0.21481474101590473
0.21497478258855807
0.21513906367306965
0.21530943905587765
0.21548431892003522
0.21566476314350697
0.21585024178731035
0.216041284790428
0.2162392170003154
0.21644165369155235
0.2166517744980325
0.21686639978586228
0.2170873843414796
0.21731393325641096
0.21754472168320066
0.2177810744693046
0.21802299161472255
0.21826729348556081
0.21851503995978402
0.21876623103739212
0.2190198068404206
0.21927311767395793
0.21952828329393323
0.21978185909696166
0.22003649477795476
0.22028768585556296
0.22053781705520645
0.22078582849892087
0.2210296004307768
0.22127045769823023
0.22150919520975434
0.22174263333145555
0.22197077206333385
0.22219652606979184
0.22241671571693566
0.22263478560815034
0.22284808604852432
0.2230571469770399
0.22326541299708214
0.2234689095662836
0.2236694914710826
0.22386901349791682
0.22406482595187513
0.22425931355837758
0.22445194637844207
0.2246440492595242
0.22483509226264184
0.22502587029626828
0.2252166483298947
0.22541007605843258
0.225600854092059
0.22579428182059694
0.22598876942709945
0.22618378697258423
0.22638092427399817
0.22657779660592103
0.22677837851071989
0.22697949035450107
0.22718378183217608
0.2273901930657802
0.22759978393327818
0.22781122958721411
0.228027974630973
0.22824683943066118
0.2284702087116988
0.22869834744357703
0.22893125562629596
0.2291673434429086
0.2294068758629062
0.22964879300832422
0.22989468469610938
0.2301405763838946
0.2303896477055736
0.2306405738136906
0.23089149992180757
0.23114295596890677
0.2313938820770238
0.23164507315463187
0.23189546932376667
0.232145335553919
0.23239281705865103
0.2326392386854185
0.23288354055625682
0.23312492776269247
0.2333641952131989
0.23360054799930283
0.23383319121253066
0.23406238982237346
0.23428655401188456
0.23450621372004607
0.23471898422143775
0.23492645533300652
0.2351273022072966
0.23531967005786983
0.23550382385421761
0.23568055850481318
0.2358474892842363
0.23600673594841623
0.2361559137719324
0.23629661257173193
0.2364283024088324
0.23654939346628692
0.2366633303474805
0.23676852323546618
0.2368652370997351
0.23695453181825188
0.23703561248254312
0.23711139375701146
0.23718055079420106
0.23724573328902335
0.2373061463330051
0.23736390968207527
0.23742087812267207
0.23747546183784857
0.23753057549200735
0.23758780890209516
0.2376468970986212
0.2377086349900586
0.23777408245437212
0.237843769430544
0.2379179608880654
0.23799904155235663
0.23808409675901504
0.2381768360809168
0.2382754047316238
0.2383813925280829
0.23849426953131195
0.23861456568029304
0.23874281091400856
0.2388787402629674
0.2390226186966607
0.23917285639814143
0.23933342790977702
0.2395019485061471
0.23967921309572496
0.2398652216785107
0.24005970928501322
0.24026479567116155
0.24047836108102677
0.240702790240029
0.2409354334532568
0.24117894041562166
0.24143251621865006
0.241697485709798
0.24197225907211825
0.24225763121408447
0.242556516800099
0.2428654712267776
0.24318740915852208
0.2435228605343153
0.24387129541517458
0.24423271380110026
0.2446081755700567
0.24499794569153513
0.2454006993180798
0.24581776129714653
0.24624966156771744
0.24669295552640777
0.24715055783762
0.2476222035318631
0.2481063027921902
0.24860338555758352
0.24911133207211394
0.2496327920306928
0.2501643208299353
0.25070644840882367
0.2512591747673581
0.25182011518011804
0.252390064555577
0.2529682279852616
0.25355195577426026
0.2541415128920641
0.25473477958274415
0.2553344055412116
0.25593376653018796
0.2565357772140758
0.2571383178369459
0.2577413883987984
0.2583426041742128
0.2589414352242069
0.25953602676234255
0.2601271736970934
0.2607140811199858
0.26129303945814375
0.2618664334369877
0.2624326732395704
0.2629925537743658
0.26354528013290024
0.26408979243720904
0.2646250308093277
0.26515285003569405
0.26567113036037915
0.2661804017223653
0.2666811940606347
0.26717112264976706
0.2676536320931472
0.26812739754331943
0.2685916240918105
0.269049756342005
0.26950099938542976
0.2699464131000493
0.270388647180775
0.27082478696320433
0.27125854202021327
0.27168964738231066
0.2721194278969525
0.2725484135031209
0.27297951886521843
0.27341141913578926
0.27384623407076286
0.27428475857861256
0.2747277875678117
0.2751761159468338
0.2756305386241522
0.27609317535569644
0.2765616414160458
0.27703805656112945
0.2775226857604389
0.27801473410550037
0.2785136716573317
0.27902002835491524
0.279532214381304
0.28005022973649796
0.28057354448151495
0.2811018936468635
0.2816342173545796
0.2821707805741539
0.28271105336660435
0.2832547707624396
0.28380087288369543
0.2843488297913889
0.2848986414855208
0.285451102874564
0.2860062139585186
0.2865631798289114
0.28712094060777743
0.2876824109595198
0.2882457360977
0.2888125058392652
0.28938060042828595
0.2899484300478159
0.29051837942327474
0.29108912370720724
0.2916603979301219
0.29223326196998356
0.2928063909793362
0.29338137477512705
0.2939571534793912
0.2945331971531466
0.29510924082690193
0.29568554947014847
0.2962589434489923
0.29683127754987165
0.29739990207787503
0.29796402212452855
0.2985225778118682
0.2990747742314202
0.29961849162725557
0.3001545249078476
0.300680489347776
0.3011969148860231
0.3017024766751332
0.3021984995625619
0.30268153894492433
0.3031537145781498
0.30361582137071164
0.30406494465820716
0.30450240928809214
0.3049276853213845
0.305341037727575
0.30574299644564623
0.30613382644508935
0.30651538251234217
0.30688633979994906
0.307248288124857
0.3075993727006279
0.30794383303912004
0.30828007932338664
0.30861023130935683
0.30893216924110145
0.30924986766098767
0.3095625316605421
0.30987201602620273
0.31017699591051384
0.310480121008387
0.31078245119778664
0.31108292660074827
0.31138419691218333
0.31168732201005644
0.31199203692487637
0.312299666504099
0.3126104757172155
0.31292631935066373
0.3132485222518994
0.3135754946039758
0.313909356162822
0.31425063686742044
0.31460013162624445
0.31495757546980285
0.31532323336758683
0.31569922507552556
0.3160829008987076
0.31647691053204446
0.31688151894502725
0.3172961961986736
0.31772253210993034
0.31815840692286856
0.31860753021036403
0.3190677822164878
0.3195381030632752
0.3200195526286908
0.32051107103477
0.3210131882204951
0.3215261691553572
0.3220486889919009
0.3225815426385991
0.32312314027850514
0.32367348191161927
0.3242328325074323
0.32479801243205053
0.3253711414414034
0.32594824499312314
0.32653409253805105
0.3271223248083993
0.32771718131602606
0.3283154824270379
0.3289198778363461
0.32952612803209214
0.3301358228312234
0.3307489622337395
0.331362896544729
0.3319789506116476
0.3325944747395841
0.33321211862344957
0.3338279077208771
0.33444290190983117
0.3350565712513296
0.3356665310199519
0.3362733111546803
0.3368761167470416
0.33747256307161544
0.3380621201894192
0.33864478810045334
0.3392187120182795
0.3397841569123889
0.3403384730878702
0.34088192551421437
0.34141557406938605
0.34193756396694724
0.342447895206898
0.34294683275872934
0.34343384668345905
0.3439089369810871
0.34437183868212223
0.3448220218475824
0.345260281385941
0.3456860873582155
0.34609864485593256
0.34649954369603936
0.3468874590310797
0.347262390861054
0.34762433918596186
0.3479738339447857
0.34830822544261436
0.34862963343537656
0.34893540822816127
0.34922554982096804
0.34950085312227075
0.34975813849817516
0.3499984658266464
0.35022289498564846
0.35042798137179676
0.3506176995274587
0.3507878099407756
0.3509399024286945
0.3510763617166356
0.35119559798765204
0.35129708130276177
0.35138293141789356
0.35145261839406555
0.3515074670787331
0.3515488023193522
0.35157529926846703
0.3515906674989535
0.3515930522243738
0.3515856330786217
0.35156841006169703
0.35154217808207344
0.35150932186517114
0.3514719611669193
0.3514285061703711
0.35138372632636716
0.3513373566654161
0.3512917819129388
0.3512488568553729
0.35121202609610336
0.3511794348486921
0.3511569124419446
0.35114551875382516
0.35114657863178983
0.35116274177074985
0.3511955979876522
0.35124514728249684
0.3513137743807041
0.3514041289771855
0.35151833082787026
0.3516537302378468
0.3518140367799911
0.35200084027125034
0.35221361077264207
0.3524539381011131
0.35272288213462816
0.35302123778166056
0.35334953498119265
0.35370936355017146
0.35409992858012335
0.35452096510155723
0.35497459287040223
0.3554594870392029
0.3559772374249058
0.3565241344546348
0.3571015029758457
0.35771040286650363
0.3583463296452584
0.35901034319007474
0.3597013836229882
0.3604183910660341
0.361161630488704
0.36192924710455915
0.36271779631021506
0.3635317825870212
0.3643674963621015
0.365225467574438
0.36610675610199567
0.36701003709731866
0.3679350455909158
0.3688809866743134
0.36984812531700284
0.3708356666105108
0.37184520037178403
0.37287407690591107
0.37392388602983867
0.3749914481096731
0.3760783529623616
0.37718274580146566
0.37830356674902105
0.379440020896554
0.3805923732135559
0.3817585039440974
0.38293682327123174
0.38412892101190577
0.38532976274578773
0.3865409382898244
0.38776006291859555
0.3889863417236276
0.3902181848879739
0.39145453253366974
0.39269299993529455
0.3939357068487778
0.39518000357920785
0.396422180553709
0.39766435752820983
0.3989046797162728
0.40014314711789783
0.40137763997715553
0.40261239780590424
0.40383947151940985
0.4050644254769862
0.4062816953193192
0.4074957855277586
0.4087035164684103
0.4099048881412745
0.4111001655158424
0.41228749380567575
0.41346634307179236
0.4146359184057188
0.4157956898684728
0.4169461873990367
0.41808635111944586
0.41921591606020897
0.42033408731285266
0.4214405999078859
0.42253412899785303
0.4236138796742804
0.42468091181513273
0.4257333706339719
0.42676940134435987
0.42779032879375245
0.4287940332262203
0.42977945476379914
0.43074526855903283
0.4316888249170102
0.4326119786241692
0.4335110201076339
0.434385949367404
0.43523703137297065
0.43605976164298466
0.4368578497503219
0.4376270561831241
0.4383681758498645
0.43908014887257873
0.43976377015974005
0.4404174498944018
0.4410443677104576
0.44164054906554
0.44220837868506985
0.4427462667520999
0.4432542132666303
0.4437322182286611
0.44417816188226283
0.44459151428845334
0.44497254041672396
0.4453199154196187
0.4456333743276465
0.4459123872018252
0.44615721901164596
0.4463673398181259
0.4465432795602483
0.446686098115977
0.4467936757293829
0.4468691920343602
0.4469110572139613
0.44692192096309824
0.4469012533427889
0.44685276392590884
0.44677698265144045
0.44667390951938407
0.44654619422465064
0.4463948966452054
0.44622187156748594
0.44602923874742145
0.4458191179409412
0.4455920390870275
0.4453525066670299
0.44510105061993077
0.4448411155491146
0.444574821210511
0.44430614214648717
0.4440377280519543
0.4437724935913155
0.4435114986425348
0.44325951265645325
0.44302051017543786
0.44279422622999765
0.44258410542351756
0.4423925324814176
0.4422224220681006
0.4420761589089871
0.4419550678515326
0.4418615336211574
0.44179820591277297
0.44176720448230866
0.44176773442129114
0.4418045651805606
0.4418774317906262
0.4419884540074172
0.4421381617699157
0.4423260251391396
0.44255522374898226
0.44282257796555047
0.4431304725142643
0.4434802322425793
0.4438692074555843
0.4442992529397173
0.44476930881701343
0.44528043496543757
0.44583157150702524
0.44642351335024943
0.4470544057086722
0.4477231887043295
0.44842959736772947
0.44917522151581935
0.44995555666724985
0.4507711327610028
0.4516206249496225
0.45250350329412714
0.4534179130080783
0.4543633241524938
0.4553378819409355
0.4563405264954389
0.45737099284651267
0.45842530645178997
0.4595058520366907
0.4606075951808834
0.4617321257013145
0.4628749391166353
0.464036300396336
0.46521408978448825
0.4664080423116001
0.46761444840479627
0.46883145327763814
0.47006144165554625
0.4712969943927687
0.47254129112319876
0.4737879725790492
0.4750354489433732
0.47628398518566184
0.47752907682456536
0.47876780919568135
0.4799980625430806
0.4812214266837102
0.48243233725825585
0.4836305292972262
0.4848122932277455
0.48597762904981356
0.48712759664139516
0.4882576915211407
0.4893702984144702
0.4904643574434195
0.4915385437605329
0.4925947121522481
0.4936355123134767
0.49465379006795773
0.4956609391038104
0.4966503351837566
0.4976246280027072
0.49858699719455607
0.49954088736268815
0.5004823239647365
0.501417401298997
0.5023485040908906
0.5032732476149964
0.5041958713831731
0.5051169053344029
0.5060421787974911
0.5069650675351589
0.5078943155406145
0.50882594827149
0.5097644702091356
0.510709881353551
0.5116587371013515
0.5126155419338863
0.5135773811867528
0.5145418701345308
0.5155103336246762
0.5164830366266797
0.5174570644761392
0.5184310923255986
0.5194032653886199
0.5203749085126589
0.5213425770943309
0.5223081259200735
0.5232667855390463
0.5242156412868467
0.5251560180109301
0.526086060924859
0.5270010005777925
0.5278989821832923
0.5287792108328856
0.5296414215570805
0.5304826996914748
0.5312988057242103
0.532094244136636
0.5328602709355441
0.5336032453887228
0.534313893563981
0.534998309759616
0.535651194585804
0.5362778474323687
0.5368748236959249
0.5374466278578218
0.5379903452536572
0.5385078306698688
0.5390027936793329
0.5394747043430673
0.5399246225390363
0.5403559928706247
0.5407693452768155
0.5411649447270992
0.5415472957028252
0.5419121586921362
0.5422653630238362
0.5426063787589432
0.5429370606838959
0.5432552890427644
0.5435623886830047
0.5438572997266522
0.544145586533021
0.5444216847427971
0.5446845344780158
0.5449357255556239
0.545174198097657
0.545398362287168
0.5456121926665243
0.5458082700899737
0.545990039160901
0.5461598846047269
0.5463140968485748
0.5464555905568477
0.5465825109431074
0.5467028070920888
0.5468095897970213
0.5469068336002726
0.5469940085628602
0.5470674051119081
0.5471352373016417
0.5471948554371501
0.547244669701486
0.5472907743929457
0.547329194969162
0.5473654957894494
0.5473949074029667
0.5474227291995373
0.5474521408130546
0.5474815524265723
0.5475112290095805
0.5475446151654654
0.5475809159857525
0.5476182766840043
0.5476612017415704
0.5477012121347338
0.5477457270092466
0.5477944813956176
0.5478355516667455
0.5478829812056609
0.547933060439488
0.5479796950699298
0.5480305692122304
0.5480848879579158
0.5481413264595301
0.5482080987712994
0.5482777857474713
0.5483540969609217
0.5484357075641954
0.548531626519991
0.548642913706273
0.5487589703433956
0.5488925149669343
0.5490369233396099
0.5491972298817545
0.5493766142272613
0.5495718967422372
0.5497809576707529
0.5500098913111047
0.5502605524497305
0.5505326761171393
0.5508230826794372
0.5511370715264475
0.5514727878717317
0.5518307616542724
0.5522133775994901
0.5526187809209461
0.5530467066491496
0.5534974197535923
0.5539756896851141
0.5544767469928747
0.5550080108226259
0.5555610021506514
0.5561457898176145
0.5567570744336927
0.5573959158768502
0.5580631090555601
0.5587557393054207
0.5594822856501482
0.5602292346456937
0.5610045353767922
0.5618026234841296
0.5626298582354929
0.5634753758817457
0.5643468605381309
0.5652376879673697
0.5661454734440422
0.5670771061749179
0.5680214574413688
0.5689825017857619
0.5699520251538718
0.5709395664473796
0.5719387663984982
0.5729456504648599
0.5739663129447614
0.5749938646314324
0.5760293654028381
0.5770722853199961
0.5781236842608707
0.5791822373780061
0.5802468847934382
0.5813197462630953
0.5824016166954521
0.5834853419142466
0.5845809907601428
0.5856840587517912
0.5867889815298777
0.5878994686672782
0.5890163150724664
0.5901368710505305
0.5912632563573998
0.5923991805659506
0.593536429621957
0.5946821577016801
0.5958366297746112
0.59699057190856
0.5981593523340131
0.5993344920272535
0.6005170508662463
0.6017088836374291
0.6029158196696075
0.6041288500000822
0.60535645365257
0.6065941261457215
0.6078474318388507
0.60911690067094
0.6104038574894447
0.611707242416401
0.6130278503602818
0.6143662112600693
0.6157231200242375
0.6170964568968562
0.6184825123050507
0.6198849958216962
0.6212999329044254
0.6227270585837478
0.6241634581952599
0.6256083368304891
0.6270630193368907
0.6285177018432919
0.6299798034954458
0.6314405803001436
0.6328992373489124
0.6343600141536104
0.6358131068430648
0.6372638148070994
0.6387084284728372
0.6401432382674026
0.6415669193433399
0.6429831812735252
0.6443843399427146
0.645774104923785
0.6471402876201432
0.6484961365063464
0.6498371471010457
0.651149805960192
0.6524449768329226
0.6537173603294144
0.6549640417852647
0.6561839613225094
0.6573800336055506
0.6585456343971098
0.6596828834531162
0.6607801221159596
0.6618521886771437
0.6628821250892349
0.6638760256505305
0.6648291209101892
0.6657488300139635
0.6666203146703484
0.6674570883233936
0.6682496120714166
0.6689984158534001
0.6697003200354508
0.6703539997701127
0.6709599849963674
0.671519865531163
0.6720296668321314
0.6724896538687641
0.6729011514885165
0.6732652195693535
0.6735850377451691
0.6738614009244361
0.6740985486190135
0.6742864119882374
0.6744353248422627
0.6745479368760002
0.6746200085775924
0.6746661132690521
0.6746722075673482
0.6746475654046716
0.674589007147128
0.6745156105980802
0.6744098877711121
0.6742917113780603
0.6741488928223316
0.6739949455479747
0.6738240402261844
0.6736515450874473
0.6734612969928028
0.6732694590812119
0.6730731166882714
0.6728765093258398
0.6726756624515496
0.6724708410348924
0.6722691992521288
0.6720728568591884
0.6718783692526858
0.6716849415241478
0.6715007877278002
0.6713200785348374
0.6711499681215206
0.6709888666709027
0.6708327996406166
0.6706928957492904
0.6705649154850661
0.6704507136343814
0.6703465806243603
0.6702633802041398
0.6701947531059327
0.6701364598178802
0.6701054583874159
0.6700892952484557
0.6700922099128583
0.670116587106044
0.6701555376212429
0.6702167455736979
0.6702965013905335
0.6703958649497138
0.6705211955190269
0.6706661338306845
0.6708317397626521
0.671019868101367
0.6712281341214091
0.671458657578708
0.6717090537478424
0.6719872717135477
0.6722837725741421
0.6726054455363955
0.6729488459969231
0.6733155637726717
0.6737026841992387
0.6741200111477964
0.6745572108081902
0.6750140182109292
0.6754952028068538
0.6759997047179992
0.6765232844325073
0.6770662069198692
0.6776279422411025
0.6782071655487515
0.6788057316292544
0.6794207258182086
0.6800502933291757
0.680693904223174
0.6813497037137646
0.6820203414958598
0.68270369781353
0.6833976529108463
0.6841051214522109
0.684823983681695
0.6855465554840551
0.6862765464321675
0.687010776892138
0.6877463321995643
0.6884834773239374
0.6892264517771161
0.6899553828472638
0.6906965025140039
0.6914225189197492
0.6921458856305827
0.6928575936838057
0.6935708915539756
0.6942682912546767
0.6949545622367496
0.6956334140730703
0.6963027270077097
0.6969534920779686
0.6975973679414578
0.6982253456354782
0.6988382200685032
0.6994346663930768
0.7000234286024075
0.7005952327643045
0.7011559082075732
0.701704395054249
0.7022425480907702
0.7027701023476458
0.7032891775808044
0.7037989788817729
0.7043000361895331
0.7048061279176254
0.7052955265677755
0.7057822755230141
0.7062687595087616
0.7067449096843541
0.7072192050735089
0.7076935004626634
0.7081656760958888
0.708628842766415
0.7091031381555696
0.7095755787582861
0.7100472244525292
0.7105228446891397
0.711006943949467
0.711485743819971
0.7119724927752094
0.7124610965168859
0.7129534098314387
0.7134515524747965
0.7139531397215394
0.7144573766631935
0.7149608186963746
0.7154788340515685
0.7159934048033776
0.7165140698534829
0.7170363247205355
0.7175553999536941
0.7180742102173614
0.7185969950233961
0.7191155403175723
0.7196322308253105
0.7201478614550841
0.7206518334272475
0.7211579251553398
0.7216473238054897
0.722140432028516
0.7226192318990198
0.7230834584475109
0.7235445053621082
0.7239925687716391
0.724420759469334
0.7248327870280691
0.7252363355630871
0.7256194814472866
0.7259808998332123
0.7263293347140718
0.7266610765169889
0.7269763902114545
0.727277925492381
0.7275619727868913
0.7278309168204063
0.7280752186912447
0.7283086568129459
0.7285317611244925
0.7287312831513268
0.7289178216730949
0.7290927015372524
0.7292538029878703
0.7294008610554572
0.7295428847027127
0.7296695401194809
0.7297991102006526
0.7299194063496336
0.7300410273460705
0.7301610585255603
0.7302821495830149
0.7304146343285888
0.7305479139826361
0.7306952370197145
0.7308518339889829
0.7310264488836492
0.7312145772223639
0.7314196636085124
0.731640913133621
0.731886274882424
0.7321504494650983
0.732435026698591
0.7327458359117075
0.7330818172264828
0.7334419107649525
0.7338338006423604
0.7342482129265154
0.7346965413055377
0.7351692468777452
0.7356742787278732
0.7362140215813412
0.7367839709568001
0.7373849217627236
0.7380168739991109
0.7386901614761177
0.7393920656581682
0.7401376898062578
0.7409193498051443
0.7417333360819504
0.7425807085146411
0.7434680913404951
0.7443941597120567
0.7453552040564496
0.7463520192821479
0.7473856652671155
0.7484542872249147
0.7495629195758772
0.7507059979606888
0.7518753083251242
0.753092048228475
0.7543326353860289
0.7556148227536934
0.7569219172535258
0.7582584233668752
0.7596246060632332
0.761007481837534
0.7624139398965465
0.7638381509114659
0.7652748154924695
0.7667191641887161
0.7681767613595204
0.7696266744150813
0.7710832117079206
0.7725381591838134
0.7739766785512548
0.77539982968821
0.7768107922285721
0.7782135407147086
0.7795855527398722
0.7809350423582878
0.7822657191428324
0.7835574454121778
0.7848271792137582
0.7860587574086133
0.7872619838679153
0.7884275846594748
0.789562713959552
0.7906565080190102
0.7917161210141105
0.7927389032499409
0.7937192903671878
0.7946707958098996
0.7955740768052226
0.7964415869192404
0.7972637872502725
0.7980425325847558
0.7987770280142175
0.7994733678369539
0.8001159188529873
0.8007126301470521
0.8012664163835512
0.8017719781726612
0.802237529568608
0.802651411913781
0.803017069811565
0.8033371529568715
0.8036225250988375
0.8038556982510477
0.8040464762846741
0.8041985687725929
0.8043135655317512
0.8043851072943612
0.8044269724739624
0.8044280323519271
0.8044073647316176
0.804347216657127
0.804261631511486
0.804157498501465
0.8040303131457142
0.8038837850171093
0.8037319574986819
0.8035562827260507
0.8033814028618932
0.8032075828757002
0.8030284634996846
0.802855968360947
0.8026882426730502
0.8025311157647999
0.8023877672700888
0.8022592570668822
0.8021490297585644
0.8020692739417291
0.8020038264774155
0.8019656708706903
0.801952687365624
0.8019672606876372
0.8019977321791192
0.8020663592773264
0.8021636030805778
0.8022825743821033
0.8024328120835841
0.8026140512155291
0.8028209923881153
0.8030594649301486
0.8033331784145044
0.8036315340615369
0.8039553267797194
0.8043130355927688
0.8046948566295128
0.8051097988526503
0.8055475284520264
0.8060077804581505
0.8064913497794952
0.8069921421177644
0.8075141320153257
0.8080403614247451
0.8085872584544743
0.8091428994774115
0.8096974806223838
0.8102605407910728
0.8108299602275494
0.8113927554267475
0.8119526359615429
0.812512516496338
0.8130620632209784
0.8136020710439381
0.8141171717347294
0.8146314775170472
0.8151333297332813
0.8156158391766614
0.8160866899624311
0.8165395228228027
0.8169732778798117
0.817409417662241
0.8178272745497813
0.8182347976271663
0.8186285422910121
0.8190212270768931
0.8194017232661815
0.819776920065647
0.8201505270481652
0.8205267837255953
0.8208964161657463
0.8212679033923357
0.8216425702528187
0.8220190918997398
0.8223987931805544
0.8227861785766126
0.8231807181489318
0.8235834717754763
0.8239891400664237
0.8243979879912646
0.8248176996652429
0.8252374113392209
0.8256653370674246
0.8260990921244338
0.8265365567543188
0.8269766710791154
0.8274218198242436
0.8278632589964957
0.8283107924670444
0.8287564711511552
0.8292098339505091
0.8296589572380046
0.8301165595492167
0.8305691274400975
0.8310246099953805
0.8314867167879424
0.8319549178788005
0.8324106654035747
0.8328695925622429
0.8333290496598933
0.8337824124592471
0.8342318007162338
0.8346803940647469
0.8351114994268446
0.835544724544871
0.8359641712493581
0.8363852077707921
0.8367884913363192
0.8371930997493018
0.837584459687727
0.8379538271583872
0.8383176302697333
0.8386758690217652
0.8390158248789078
0.8393441220784398
0.839660230681379
0.839952227060624
0.8402291201788735
0.8404964743954416
0.8407455457171208
0.8409734194795079
0.8411830103470056
0.8413774979535084
0.8415590020549445
0.8417185136886155
0.8418623921223087
0.8419916972339889
0.8421122583524613
0.8422079123387655
0.8422828987047606
0.8423422518707775
0.8423817323249584
0.8424111439384757
0.842402399945268
0.8423838520808875
0.8423358926029897
0.8422651457488535
0.8421724064269517
0.8420579396067756
0.8419217452883259
0.8417619686851635
0.841569070895608
0.8413592150586188
0.8411239221504796
0.8408645170186462
0.8405796748156622
0.8402664808771254
0.8399350040436997
0.839579414986579
0.8391994487362733
0.8387948403232902
0.8383772484052414
0.8379326295990955
0.8374790018302504
0.8369983471733082
0.8365110682790876
0.8360094810323445
0.835485371378854
0.8349514578541914
0.8344119799702142
0.8338603134896445
0.8332943386565529
0.8327286287929522
0.8321520551802148
0.831571771994601
0.830984334632726
0.8303987520572895
0.8298012458547511
0.8292087740725445
0.8286189519852495
0.8280203859047467
0.8274255293971198
0.8268357073098247
0.8262530393987906
0.825667456823354
0.8250847889123198
0.8245082152995822
0.8239356162292117
0.8233680515791731
0.8228044614715018
0.8222474956011089
0.8216918545781718
0.8211407180365847
0.8205977955492226
0.8200501036110203
0.819510625727043
0.8189753873549245
0.818446773220085
0.8179112698784748
0.817384510530073
0.8168566913037066
0.8163262223824288
0.815790719040819
0.8152530959432801
0.8147122932118472
0.8141701656329589
0.8136208838778094
0.8130660377633459
0.8124963533573781
0.8119354129446181
0.811363078843739
0.8107798809937223
0.8102022475030202
0.8096169298970748
0.8090422110707752
0.8084680221834579
0.8079068168012066
0.8073575350460572
0.8068177921925892
0.8063042813187447
0.8058045488584399
0.8053344929811438
0.8048882843580508
0.8044698975315282
0.8040944357625717
0.803750505363062
0.8034502949295915
0.8031903598587754
0.8029773243878928
0.80280588912712
0.8026797636493339
0.8026095467341794
0.8025859644494674
0.8026079569172326
0.8026842681306834
0.8028042993101729
0.8029765294794192
0.8031916847062313
0.8034540045024675
0.8037587194172875
0.8041105989015318
0.8044985142365723
0.8049312094156167
0.805385102153953
0.8058882792176425
0.8064213978338322
0.8069788936432072
0.807572425303378
0.8081874194923322
0.8088241411795605
0.8094823253955714
0.8101508434217377
0.8108408239766866
0.8115331892570558
0.8122430425238407
0.8129555454855372
0.8136696382641805
0.814380286439439
0.8150853702553835
0.8157907190408189
0.8164756651754361
0.8171500125304074
0.8177978629362638
0.8184321998980716
0.819049578812446
0.8196277422421305
0.8201820584176117
0.8207135872168543
0.8211982164161636
0.8216616480561811
0.8220821546386329
0.822473514577058
0.8228198297019885
0.8231375281218746
0.8234221053553673
0.8236703817685728
0.8238852720258939
0.8240741952730821
0.8242326470287885
0.8243704311641852
0.8244727093877686
0.8245641238622143
0.8246306312044929
0.8246743511705317
0.8246997882416822
0.824704822662014
0.824695813699315
0.8246536835502224
0.8246014845604664
0.8245320625537855
0.8244417079573042
0.8243248564117079
0.8241894570017314
0.824039749239233
0.823868049008969
0.823676476066869
0.8234658253214067
0.8232474904607008
0.8229984191390218
0.8227255005631396
0.822449667322855
0.8221423027131233
0.8218256641712018
0.8214838535276211
0.8211354186467619
0.8207726754133803
0.8203948289190035
0.8200032040110872
0.819612903950626
0.8192157146833957
0.8188153457822713
0.8184170966370761
0.8180217621562836
0.8176375563941193
0.8172562652963575
0.8168868978256977
0.8165366081584001
0.8162030115690451
0.8158794838203534
0.8155824530207769
0.8153037051160893
0.815059403245251
0.814838683659125
0.8146537349543037
