0.058310255408287
0.058417432010174
0.058524068444967
0.058630034327507
0.058735236525536
0.058839622884989
0.058943126350641
0.059045758098364
0.059147696942091
0.059249144047499
0.059350125491619
0.059450525790453
0.059550285339355
0.059649433940649
0.059747997671366
0.059845969080925
0.059943344444036
0.060040108859539
0.060136288404465
0.060231935232878
0.060327056795359
0.060421634465456
0.060515683144331
0.060609236359596
0.060702301561832
0.060794882476330
0.060886941850185
0.060978323221207
0.061068892478943
0.061158657073975
0.061247698962688
0.061336126178503
0.061424028128386
0.061511486768723
0.061598572880030
0.061685357242823
0.061771798878908
0.061857737600803
0.061943050473928
0.062027730047703
0.062111824750900
0.062195371836424
0.062278382480145
0.062360893934965
0.062442965805531
0.062524653971195
0.062606014311314
0.062687046825886
0.062767766416073
0.062848247587681
0.062928564846516
0.063008844852448
0.063089206814766
0.063169717788696
0.063250340521336
0.063331060111523
0.063411764800549
0.063492178916931
0.063572019338608
0.063651122152805
0.063729427754879
0.063806936144829
0.063883706927299
0.063959777355194
0.064035095274448
0.064109571278095
0.064183153212070
0.064255848526955
0.064327679574490
0.064398705959320
0.064469002187252
0.064538583159447
0.064607411623001
0.064675442874432
0.064742721617222
0.064809322357178
0.064875356853008
0.064940869808197
0.065005831420422
0.065070241689682
0.065134137868881
0.065197512507439
0.065260298550129
0.065322384238243
0.065383650362492
0.065444067120552
0.065503634512424
0.065562374889851
0.065620385110378
0.065677851438522
0.065734885632992
0.065791502594948
0.065847568213940
0.065902911126614
0.065957501530647
0.066011302173138
0.066064283251762
0.066116489470005
0.066168010234833
0.066218927502632
0.066269233822823
0.066318862140179
0.066367737948895
0.066415816545486
0.066463120281696
0.066509634256363
0.066555351018906
0.066600278019905
0.066644467413425
0.066688001155853
0.066730879247189
0.066773042082787
0.066814437508583
0.066855058073997
0.066894955933094
0.066934235394001
0.066972941160202
0.067010998725891
0.067048333585262
0.067084930837154
0.067120835185051
0.067156121134758
0.067190796136856
0.067224822938442
0.067258253693581
0.067291244864464
0.067323848605156
0.067355945706367
0.067387439310551
0.067418374121189
0.067448832094669
0.067478738725185
0.067508004605770
0.067536577582359
0.067564457654953
0.067591667175293
0.067618347704411
0.067644611001015
0.067670568823814
0.067696273326874
0.067721627652645
0.067746452987194
0.067770697176456
0.067794546484947
0.067818209528923
0.067841812968254
0.067865379154682
0.067888773977757
0.067911840975285
0.067934475839138
0.067956686019897
0.067978501319885
0.067999996244907
0.068021222949028
0.068042129278183
0.068062655627728
0.068082779645920
0.068102538585663
0.068121992051601
0.068141132593155
0.068159870803356
0.068178102374077
0.068195834755898
0.068213179707527
0.068230248987675
0.068247154355049
0.068263940513134
0.068280540406704
0.068296827375889
0.068312659859657
0.068327941000462
0.068342633545399
0.068356819450855
0.068370662629604
0.068384274840355
0.068397663533688
0.068410709500313
0.068423278629780
0.068435259163380
0.068446628749371
0.068457484245300
0.068468026816845
0.068478330969810
0.068488389253616
0.068498201668262
0.068507812917233
0.068517252802849
0.068526528775692
0.068535566329956
0.068544276058674
0.068552576005459
0.068560346961021
0.068567514419556
0.068574063479900
0.068580053746700
0.068585656583309
0.068591065704823
0.068596333265305
0.068601325154305
0.068605855107307
0.068609863519669
0.068613402545452
0.068616494536400
0.068619132041931
0.068621367216110
0.068623229861259
0.068624764680862
0.068625949323177
0.068626798689365
0.068627364933491
0.068627722561359
0.068627990782261
0.068628318607807
0.068628825247288
0.068629473447800
0.068630136549473
0.068630650639534
0.068630844354630
0.068630598485470
0.068629801273346
0.068628460168839
0.068626642227173
0.068624325096607
0.068621449172497
0.068617999553680
0.068614006042480
0.068609498441219
0.068604536354542
0.068599261343479
0.068593844771385
0.068588368594646
0.068582817912102
0.068577051162720
0.068570859730244
0.068564116954803
0.068556778132915
0.068548910319805
0.068540543317795
0.068531669676304
0.068522281944752
0.068512387573719
0.068501979112625
0.068491064012051
0.068479761481285
0.068468131124973
0.068456150591373
0.068443723022938
0.068430796265602
0.068417422473431
0.068403705954552
0.068389721214771
0.068375527858734
0.068361103534698
0.068346418440342
0.068331561982632
0.068316586315632
0.068301461637020
0.068286165595055
0.068270653486252
0.068254865705967
0.068238779902458
0.068222373723984
0.068205587565899
0.068188436329365
0.068171054124832
0.068153664469719
0.068136490881443
0.068119637668133
0.068103030323982
0.068086452782154
0.068069674074650
0.068052545189857
0.068035043776035
0.068017147481441
0.067998886108398
0.067980326712132
0.067961439490318
0.067942135035992
0.067922301590443
0.067901983857155
0.067881338298321
0.067860536277294
0.067839741706848
0.067819066345692
0.067798577249050
0.067778266966343
0.067758046090603
0.067737780511379
0.067717321217060
0.067696511745453
0.067675217986107
0.067653432488441
0.067631229758263
0.067608743906021
0.067586153745651
0.067563645541668
0.067541226744652
0.067518763244152
0.067496135830879
0.067473314702511
0.067450314760208
0.067427136003971
0.067403756082058
0.067380093038082
0.067356027662754
0.067331522703171
0.067306607961655
0.067281268537045
0.067255482077599
0.067229293286800
0.067202776670456
0.067175999283791
0.067148886620998
0.067121371626854
0.067093454301357
0.067065112292767
0.067036420106888
0.067007504403591
0.066978439688683
0.066949255764484
0.066919974982738
0.066890545189381
0.066860973834991
0.066831335425377
0.066801741719246
0.066772289574146
0.066743068397045
0.066714085638523
0.066685259342194
0.066656529903412
0.066627904772758
0.066599279642105
0.066570565104485
0.066541656851768
0.066512502729893
0.066483102738857
0.066453531384468
0.066423848271370
0.066393986344337
0.066363811492920
0.066333323717117
0.066302642226219
0.066271834075451
0.066240914165974
0.066209815442562
0.066178470849991
0.066146790981293
0.066114760935307
0.066082410514355
0.066049754619598
0.066016778349876
0.065983466804028
0.065949834883213
0.065915971994400
0.065881945192814
0.065847761929035
0.065813377499580
0.065778732299805
0.065743878483772
0.065708875656128
0.065673798322678
0.065638728439808
0.065603725612164
0.065568819642067
0.065534017980099
0.065499268472195
0.065464600920677
0.065430119633675
0.065395794808865
0.065361544489861
0.065327189862728
0.065292581915855
0.065257638692856
0.065222345292568
0.065186716616154
0.065150760114193
0.065114513039589
0.065077990293503
0.065041191875935
0.065004087984562
0.064966738224030
0.064929284155369
0.064891815185547
0.064854316413403
0.064816676080227
0.064778767526150
0.064740538597107
0.064702056348324
0.064663521945477
0.064625188708305
0.064587280154228
0.064549826085567
0.064512722194195
0.064475819468498
0.064438842236996
0.064401559531689
0.064363956451416
0.064326092600822
0.064287900924683
0.064249359071255
0.064210563898087
0.064171738922596
0.064133062958717
0.064094640314579
0.064056508243084
0.064018622040749
0.063980959355831
0.063943535089493
0.063906416296959
0.063869602978230
0.063833087682724
0.063796907663345
0.063761159777641
0.063725836575031
0.063690736889839
0.063655555248260
0.063620097935200
0.063584417104721
0.063548624515533
0.063512675464153
0.063476592302322
0.063440501689911
0.063404582440853
0.063368976116180
0.063333697617054
0.063298642635345
0.063263654708862
0.063228577375412
0.063193269073963
0.063157640397549
0.063121698796749
0.063085563480854
0.063049398362637
0.063013240695000
0.062977038323879
0.062940627336502
0.062903881072998
0.062866784632206
0.062829382717609
0.062791757285595
0.062753945589066
0.062715880572796
0.062677487730980
0.062638789415359
0.062599882483482
0.062560863792896
0.062521770596504
0.062482587993145
0.062443196773529
0.062403500080109
0.062363486737013
0.062323234975338
0.062282815575600
0.062242269515991
0.062201630324125
0.062160950154066
0.062120351940393
0.062079902738333
0.062039576470852
0.061999313533306
0.061959084123373
0.061918865889311
0.061878539621830
0.061837952584028
0.061797015368938
0.061755727976561
0.061714105308056
0.061672229319811
0.061630301177502
0.061588563024998
0.061547204852104
0.061506301164627
0.061465792357922
0.061425492167473
0.061385169625282
0.061344645917416
0.061303809285164
0.061262659728527
0.061221294105053
0.061179764568806
0.061138018965721
0.061096023768187
0.061053730547428
0.061011113226414
0.060968171805143
0.060924883931875
0.060881279408932
0.060837514698505
0.060793731361628
0.060749992728233
0.060706261545420
0.060662407428026
0.060618326067924
0.060574043542147
0.060529619455338
0.060485042631626
0.060440212488174
0.060395080596209
0.060349650681019
0.060303885489702
0.060257781296968
0.060211427509785
0.060164906084538
0.060118198394775
0.060071226209402
0.060023959726095
0.059976384043694
0.059928495436907
0.059880286455154
0.059831745922565
0.059782870113850
0.059733659029007
0.059684101492167
0.059634197503328
0.059583950787783
0.059533372521400
0.059482462704182
0.059431280940771
0.059379965066910
0.059328604489565
0.059277202934027
0.059225693345070
0.059173978865147
0.059122014790773
0.059069857001305
0.059017531573772
0.058965038508177
0.058912400156260
0.058859672397375
0.058806847780943
0.058753844350576
0.058700606226921
0.058647118508816
0.058593474328518
0.058539848774672
0.058486327528954
0.058432903140783
0.058379501104355
0.058325983583927
0.058272249996662
0.058218311518431
0.058164242655039
0.058110032230616
0.058055657893419
0.058001212775707
0.057946801185608
0.057892408221960
0.057837963104248
0.057783380150795
0.057728696614504
0.057674042880535
0.057619463652372
0.057564914226532
0.057510264217854
0.057455424219370
0.057400397956371
0.057345200330019
0.057289808988571
0.057234205305576
0.057178404182196
0.057122450321913
0.057066380977631
0.057010233402252
0.056954007595778
0.056897673755884
0.056841228157282
0.056784804910421
0.056728608906269
0.056672733277082
0.056617047637701
0.056561280041933
0.056505285203457
0.056449048221111
0.056392565369606
0.056335851550102
0.056278944015503
0.056221835315228
0.056164521723986
0.056107051670551
0.056049533188343
0.055992074310780
0.055934660136700
0.055877175182104
0.055819578468800
0.055762045085430
0.055704742670059
0.055647671222687
0.055590763688087
0.055533982813358
0.055477336049080
0.055420786142349
0.055364239960909
0.055307578295469
0.055250767618418
0.055193927139044
0.055137213319540
0.055080719292164
0.055024530738592
0.054968714714050
0.054913245141506
0.054858025163412
0.054802969098091
0.054747994989157
0.054693091660738
0.054638341069221
0.054583847522736
0.054529640823603
0.054475616663694
0.054421629756689
0.054367557168007
0.054313395172358
0.054259199649096
0.054204955697060
0.054150585085154
0.054096031934023
0.054041266441345
0.053986314684153
0.053931228816509
0.053876094520092
0.053821027278900
0.053766086697578
0.053711272776127
0.053656585514545
0.053602050989866
0.053547628223896
0.053493242710829
0.053438901901245
0.053384598344564
0.053330298513174
0.053275935351849
0.053221423178911
0.053166713565588
0.053111799061298
0.053056705743074
0.053001478314400
0.052946101874113
0.052890513092279
0.052834685891867
0.052778672426939
0.052722539752722
0.052666351199150
0.052610196173191
0.052554186433554
0.052498456090689
0.052443154156208
0.052388355135918
0.052334055304527
0.052280221134424
0.052226722240448
0.052173409610987
0.052120208740234
0.052067074924707
0.052014008164406
0.051961027085781
0.051908120512962
0.051855314522982
0.051802720874548
0.051750469952822
0.051698677241802
0.051647420972586
0.051596704870462
0.051546487957239
0.051496740430593
0.051447398960590
0.051398403942585
0.051349755376577
0.051301520317793
0.051253788173199
0.051206570118666
0.051159784197807
0.051113314926624
0.051067098975182
0.051021121442318
0.050975382328033
0.050929777324200
0.050884116441011
0.050838284194469
0.050792310386896
0.050746303051710
0.050700362771749
0.050654586404562
0.050609052181244
0.050563801079988
0.050518840551376
0.050474204123020
0.050430014729500
0.050386447459459
0.050343587994576
0.050301387906075
0.050259716808796
0.050218403339386
0.050177328288555
0.050136417150497
0.050095591694117
0.050054810941219
0.050014078617096
0.049973413348198
0.049932871013880
0.049892410635948
0.049851916730404
0.049811452627182
0.049771200865507
0.049731314182281
0.049691911786795
0.049652997404337
0.049614477902651
0.049576237797737
0.049538195133209
0.049500279128551
0.049462422728539
0.049424618482590
0.049386840313673
0.049348991364241
0.049311012029648
0.049272917211056
0.049234841018915
0.049197029322386
0.049159683287144
0.049122810363770
0.049086332321167
0.049050200730562
0.049014408141375
0.048978932201862
0.048943758010864
0.048908904194832
0.048874411731958
0.048840351402760
0.048806775361300
0.048773646354675
0.048740852624178
0.048708304762840
0.048675931990147
0.048643749207258
0.048611752688885
0.048579882830381
0.048548050224781
0.048516139388084
0.048484016209841
0.048451613634825
0.048418976366520
0.048386227339506
0.048353515565395
0.048320852220058
0.048288144171238
0.048255342990160
0.048222467303276
0.048189528286457
0.048156511038542
0.048123452812433
0.048090528696775
0.048057939857244
0.048025824129581
0.047994196414948
0.047963041812181
0.047932278364897
0.047901738435030
0.047871291637421
0.047840889543295
0.047810506075621
0.047780130058527
0.047749638557434
0.047718919813633
0.047687932848930
0.047656737267971
0.047625377774239
0.047593861818314
0.047562271356583
0.047530759125948
0.047499440610409
0.047468289732933
0.047437194734812
0.047406040132046
0.047374822199345
0.047343596816063
0.047312382608652
0.047281101346016
0.047249648720026
0.047218028455973
0.047186296433210
0.047154512256384
0.047122724354267
0.047090977430344
0.047059282660484
0.047027610242367
0.046995904296637
0.046964060515165
0.046932037919760
0.046899903565645
0.046867664903402
0.046835333108902
0.046802926808596
0.046770382672548
0.046737652271986
0.046704780310392
0.046671871095896
0.046639010310173
0.046606164425611
0.046573210507631
0.046540074050426
0.046506825834513
0.046473521739244
0.046440113335848
0.046406619250774
0.046373158693314
0.046339835971594
0.046306613832712
0.046273428946733
0.046240311115980
0.046207387000322
0.046174798160791
0.046142604202032
0.046110741794109
0.046079110354185
0.046047654002905
0.046016313135624
0.045985098928213
0.045954119414091
0.045923486351967
0.045893352478743
0.045863866806030
0.045835141092539
0.045807242393494
0.045780215412378
0.045754142105579
0.045729182660580
0.045705504715443
0.045683193951845
0.045662291347980
0.045642767101526
0.045624461025000
0.045607153326273
0.045590668916702
0.045574918389320
0.045559830963612
0.045545384287834
0.045531634241343
0.045518703758717
0.045506689697504
0.045495655387640
0.045485548675060
0.045476224273443
0.045467488467693
0.045459091663361
0.045450840145350
0.045442640781403
0.045434478670359
0.045426398515701
0.045418433845043
0.045410562306643
0.045402657240629
0.045394547283649
0.045386154204607
0.045377552509308
0.045368906110525
0.045360393822193
0.045352175831795
0.045344367623329
0.045336976647377
0.045329939574003
0.045323263853788
0.045317016541958
0.045311253517866
0.045305989682674
0.045301139354706
0.045296564698219
0.045292165130377
0.045287944376469
0.045284051448107
0.045280784368515
0.045278415083885
0.045277051627636
0.045276693999767
0.045277282595634
0.045278754085302
0.045281033962965
0.045284003019333
0.045287508517504
0.045291408896446
0.045295599848032
0.045300055295229
0.045304831117392
0.045310042798519
0.045315738767385
0.045321848243475
0.045328259468079
0.045334786176682
0.045341271907091
0.045347623527050
0.045353822410107
0.045359883457422
0.045365851372480
0.045371826738119
0.045377895236015
0.045384075492620
0.045390352606773
0.045396704226732
0.045403085649014
0.045409444719553
0.045415766537189
0.045422043651342
0.045428290963173
0.045434553176165
0.045440807938576
0.045446906238794
0.045452695339918
0.045458126813173
0.045463267713785
0.045468214899302
0.045472994446754
0.045477569103241
0.045481868088245
0.045485831797123
0.045489560812712
0.045493267476559
0.045497119426727
0.045501232147217
0.045505680143833
0.045510426163673
0.045515317469835
0.045520097017288
0.045524589717388
0.045528780668974
0.045532643795013
0.045536216348410
0.045539699494839
0.045543313026428
0.045547194778919
0.045551333576441
0.045555535703897
0.045559559017420
0.045563273131847
0.045566715300083
0.045570049434900
0.045573387295008
0.045576766133308
0.045580226927996
0.045583728700876
0.045587152242661
0.045590344816446
0.045593194663525
0.045595657080412
0.045597735792398
0.045599456876516
0.045600924640894
0.045602355152369
0.045603878796101
0.045605476945639
0.045607112348080
0.045608714222908
0.045610178261995
0.045611508190632
0.045612838119268
0.045614305883646
0.045616015791893
0.045617897063494
0.045619700103998
0.045621190220118
0.045622307807207
0.045623134821653
0.045623794198036
0.045624412596226
0.045625060796738
0.045625839382410
0.045626834034920
0.045628122985363
0.045629873871803
0.045632254332304
0.045635335147381
0.045639041811228
0.045643202960491
0.045647643506527
0.045652180910110
0.045656695961952
0.045661129057407
0.045665495097637
0.045669797807932
0.045674014836550
0.045678123831749
0.045682035386562
0.045685611665249
0.045688807964325
0.045691706240177
0.045694347470999
0.045696713030338
0.045698817819357
0.045700702816248
0.045702375471592
0.045703779906034
0.045704860240221
0.045705635100603
0.045706178992987
0.045706592500210
0.045706897974014
0.045707065612078
0.045707046985626
0.045706816017628
0.045706372708082
0.045705743134022
0.045704986900091
0.045704215764999
0.045703507959843
0.045702863484621
0.045702341943979
0.045701995491982
0.045701783150434
0.045701626688242
0.045701388269663
0.045700907707214
0.045700095593929
0.045698940753937
0.045697484165430
0.045695845037699
0.045694191008806
0.045692671090364
0.045691329985857
0.045690141618252
0.045689042657614
0.045687921345234
0.045686665922403
0.045685205608606
0.045683443546295
0.045681297779083
0.045678749680519
0.045675843954086
0.045672658830881
0.045669257640839
0.045665737241507
0.045662213116884
0.045658756047487
0.045655399560928
0.045652169734240
0.045649025589228
0.045645806938410
0.045642353594303
0.045638624578714
0.045634597539902
0.045630231499672
0.045625574886799
0.045620717108250
0.045615676790476
0.045610401779413
0.045604821294546
0.045598894357681
0.045592632144690
0.045586094260216
0.045579437166452
0.045572765171528
0.045566074550152
0.045559328049421
0.045552499592304
0.045545518398285
0.045538309961557
0.045530837029219
0.045523166656494
0.045515384525061
0.045507501810789
0.045499499887228
0.045491360127926
0.045483153313398
0.045475009828806
0.045466959476471
0.045458957552910
0.045450925827026
0.045442726463079
0.045434262603521
0.045425571501255
0.045416746288538
0.045407831668854
0.045398931950331
0.045390211045742
0.045381706207991
0.045373309403658
0.045364845544100
0.045356187969446
0.045347318053246
0.045338276773691
0.045329071581364
0.045319680124521
0.045310039073229
0.045300099998713
0.045289866626263
0.045279398560524
0.045268863439560
0.045258518308401
0.045248523354530
0.045238807797432
0.045229129493237
0.045219291001558
0.045209180563688
0.045198809355497
0.045188210904598
0.045177444815636
0.045166537165642
0.045155413448811
0.045144006609917
0.045132298022509
0.045120295137167
0.045108009129763
0.045095492154360
0.045082848519087
0.045070204883814
0.045057673007250
0.045045331120491
0.045033112168312
0.045020863413811
0.045008443295956
0.044995777308941
0.044982913881540
0.044969916343689
0.044956818223000
0.044943615794182
0.044930301606655
0.044916935265064
0.044903598725796
0.044890269637108
0.044876772910357
0.044862985610962
0.044848948717117
0.044834703207016
0.044820290058851
0.044805839657784
0.044791530817747
0.044777493923903
0.044763784855604
0.044750388711691
0.044737227261066
0.044724158942699
0.044711027294397
0.044697746634483
0.044684398919344
0.044671181589365
0.044658243656158
0.044645588845015
0.044633161276579
0.044620968401432
0.044609103351831
0.044597622007132
0.044586483389139
0.044575575739145
0.044564735144377
0.044553779065609
0.044542573392391
0.044531133025885
0.044519588351250
0.044508002698421
0.044496331363916
0.044484481215477
0.044472347944975
0.044459898024797
0.044447116553783
0.044433984905481
0.044420525431633
0.044406805187464
0.044392932206392
0.044378954917192
0.044364843517542
0.044350527226925
0.044336050748825
0.044321510940790
0.044306900352240
0.044292122125626
0.044277109205723
0.044261883944273
0.044246423989534
0.044230662286282
0.044214583933353
0.044198237359524
0.044181689620018
0.044164955615997
0.044147983193398
0.044130757451057
0.044113364070654
0.044095896184444
0.044078353792429
0.044060651212931
0.044042706489563
0.044024519622326
0.044006127864122
0.043987534940243
0.043968778103590
0.043949950486422
0.043931078165770
0.043912079185247
0.043892867863178
0.043873436748981
0.043853860348463
0.043834179639816
0.043814357370138
0.043794341385365
0.043774101883173
0.043753717094660
0.043733380734921
0.043713293969631
0.043693546205759
0.043674096465111
0.043654773384333
0.043635357171297
0.043615739792585
0.043595969676971
0.043576147407293
0.043556343764067
0.043536577373743
0.043516874313354
0.043497186154127
0.043477389961481
0.043457411229610
0.043437320739031
0.043417207896709
0.043397091329098
0.043376989662647
0.043356981128454
0.043337158858776
0.043317586183548
0.043298184871674
0.043278761208057
0.043259140104055
0.043239265680313
0.043219149112701
0.043198850005865
0.043178416788578
0.043157897889614
0.043137401342392
0.043117050081491
0.043096896260977
0.043076954782009
0.043057173490524
0.043037436902523
0.043017704039812
0.042998034507036
0.042978439480066
0.042958874255419
0.042939294129610
0.042919591069221
0.042899642139673
0.042879421263933
0.042859017848969
0.042838528752327
0.042817950248718
0.042797185480595
0.042776167392731
0.042754944413900
0.042733609676361
0.042712230235338
0.042690828442574
0.042669389396906
0.042647842317820
0.042626086622477
0.042604058980942
0.042581759393215
0.042559247463942
0.042536582797766
0.042513735592365
0.042490668594837
0.042467456310987
0.042444199323654
0.042420960962772
0.042397763580084
0.042374566197395
0.042351298034191
0.042327925562859
0.042304508388042
0.042281165719032
0.042257972061634
0.042234934866428
0.042212024331093
0.042189180850983
0.042166318744421
0.042143341153860
0.042120181024075
0.042096875607967
0.042073499411345
0.042050063610077
0.042026568204165
0.042003087699413
0.041979707777500
0.041956480592489
0.041933391243219
0.041910383850336
0.041887417435646
0.041864413768053
0.041841272264719
0.041817929595709
0.041794370859861
0.041770633310080
0.041746787726879
0.041722901165485
0.041698995977640
0.041675001382828
0.041650835424662
0.041626535356045
0.041602138429880
0.041577581316233
0.041552808135748
0.041527796536684
0.041502524167299
0.041477017104626
0.041451394557953
0.041425820440054
0.041400339454412
0.041374966502190
0.041349716484547
0.041324563324451
0.041299518197775
0.041274555027485
0.041249558329582
0.041224397718906
0.041199021041393
0.041173450648785
0.041147742420435
0.041121974587440
0.041096236556768
0.041070532053709
0.041044838726521
0.041019134223461
0.040993366390467
0.040967445820570
0.040941338986158
0.040915068238974
0.040888682007790
0.040862198919058
0.040835570544004
0.040808718651533
0.040781635791063
0.040754351764917
0.040726900100708
0.040699403733015
0.040671993046999
0.040644701570272
0.040617458522320
0.040590189397335
0.040562875568867
0.040535513311625
0.040508203208447
0.040481094270945
0.040454257279634
0.040427636355162
0.040401075035334
0.040374431759119
0.040347632020712
0.040320627391338
0.040293410420418
0.040265988558531
0.040238384157419
0.040210604667664
0.040182616561651
0.040154397487640
0.040125969797373
0.040097348392010
0.040068536996841
0.040039543062449
0.040010400116444
0.039981119334698
0.039951663464308
0.039922043681145
0.039892297238111
0.039862420409918
0.039832446724176
0.039802439510822
0.039772339165211
0.039742048829794
0.039711561053991
0.039680909365416
0.039650142192841
0.039619252085686
0.039588212966919
0.039557017385960
0.039525702595711
0.039494380354881
0.039463181048632
0.039432220160961
0.039401575922966
0.039371244609356
0.039341203868389
0.039311446249485
0.039281975477934
0.039252694696188
0.039223480969667
0.039194282144308
0.039165120571852
0.039136037230492
0.039107043296099
0.039078112691641
0.039049226790667
0.039020325988531
0.038991335779428
0.038962237536907
0.038933053612709
0.038903772830963
0.038874447345734
0.038845144212246
0.038815911859274
0.038786776363850
0.038757767528296
0.038728915154934
0.038700170814991
0.038671441376209
0.038642637431622
0.038613744080067
0.038584854453802
0.038556095212698
0.038527403026819
0.038498640060425
0.038469713181257
0.038440626114607
0.038411375135183
0.038381956517696
0.038352377712727
0.038322705775499
0.038293026387691
0.038263361901045
0.038233693689108
0.038203980773687
0.038174144923687
0.038144119083881
0.038113869726658
0.038083404302597
0.038052756339312
0.038021985441446
0.037991154938936
0.037960343062878
0.037929594516754
0.037898916751146
0.037868376821280
0.037837974727154
0.037807572633028
0.037777066230774
0.037746474146843
0.037715788930655
0.037684958428144
0.037654045969248
0.037623181939125
0.037592370063066
0.037561487406492
0.037530485540628
0.037499487400055
0.037468627095222
0.037437982857227
0.037407577037811
0.037377469241619
0.037347737699747
0.037318393588066
0.037289284169674
0.037260185927153
0.037231005728245
0.037201780825853
0.037172563374043
0.037143368273973
0.037114124745131
0.037084735929966
0.037055231630802
0.037025641649961
0.036995932459831
0.036966137588024
0.036936417222023
0.036906838417053
0.036877349019051
0.036847855895758
0.036818299442530
0.036788627505302
0.036758814007044
0.036728870123625
0.036698807030916
0.036668654531240
0.036638498306274
0.036608438938856
0.036578513681889
0.036548659205437
0.036518815904856
0.036488991230726
0.036459252238274
0.036429721862078
0.036400515586138
0.036371607333422
0.036342877894640
0.036314245313406
0.036285638809204
0.036256957799196
0.036228146404028
0.036199219524860
0.036170251667500
0.036141280084848
0.036112334579229
0.036083474755287
0.036054689437151
0.036025874316692
0.035997003316879
0.035968154668808
0.035939365625381
0.035910584032536
0.035881817340851
0.035853102803230
0.035824470221996
0.035795938223600
0.035767581313848
0.035739477723837
0.035711649805307
0.035684164613485
0.035657040774822
0.035630226135254
0.035603772848845
0.035577788949013
0.035552240908146
0.035527002066374
0.035501986742020
0.035477150231600
0.035452473908663
0.035428006201982
0.035403825342655
0.035379931330681
0.035356197506189
0.035332452505827
0.035308554768562
0.035284481942654
0.035260304808617
0.035236112773418
0.035212032496929
0.035188131034374
0.035164348781109
0.035140603780746
0.035116843879223
0.035093054175377
0.035069257020950
0.035045415163040
0.035021509975195
0.034997582435608
0.034973654896021
0.034949637949467
0.034925457090139
0.034901116043329
0.034876640886068
0.034852076321840
0.034827504307032
0.034802962094545
0.034778427332640
0.034753806889057
0.034729018807411
0.034704055637121
0.034678999334574
0.034653987735510
0.034629117697477
0.034604441374540
0.034580003470182
0.034555882215500
0.034532137215137
0.034508798271418
0.034485880285501
0.034463405609131
0.034441381692886
0.034419789910316
0.034398600459099
0.034377828240395
0.034357413649559
0.034337203949690
0.034317005425692
0.034296710044146
0.034276444464922
0.034256409853697
0.034236703068018
0.034217305481434
0.034198112785816
0.034178953617811
0.034159746021032
0.034140475094318
0.034121084958315
0.034101534634829
0.034081876277924
0.034062162041664
0.034042358398438
0.034022536128759
0.034002885222435
0.033983532339334
0.033964432775974
0.033945485949516
0.033926621079445
0.033907841891050
0.033889144659042
0.033870469778776
0.033851698040962
0.033832758665085
0.033813692629337
0.033794496208429
0.033775128424168
0.033755607903004
0.033735953271389
0.033716179430485
0.033696305006742
0.033676307648420
0.033656239509583
0.033636167645454
0.033616129308939
0.033596120774746
0.033576082438231
0.033555954694748
0.033535707741976
0.033515326678753
0.033494815230370
0.033474192023277
0.033453430980444
0.033432569354773
0.033411715179682
0.033390924334526
0.033370185643435
0.033349495381117
0.033328898251057
0.033308513462543
0.033288434147835
0.033268626779318
0.033248927444220
0.033229161053896
0.033209219574928
0.033189121633768
0.033168938010931
0.033148705959320
0.033128418028355
0.033108014613390
0.033087484538555
0.033066850155592
0.033046137541533
0.033025324344635
0.033004369586706
0.032983250916004
0.032961975783110
0.032940614968538
0.032919295132160
0.032898180186749
0.032877441495657
0.032857179641724
0.032837349921465
0.032817825675011
0.032798413187265
0.032778952270746
0.032759368419647
0.032739665359259
0.032719973474741
0.032700471580029
0.032681290060282
0.032662492245436
0.032644126564264
0.032626230269670
0.032608814537525
0.032591845840216
0.032575231045485
0.032558821141720
0.032542422413826
0.032525926828384
0.032509390264750
0.032492868602276
0.032476346939802
0.032459810376167
0.032443214207888
0.032426547259092
0.032409895211458
0.032393328845501
0.032376859337091
0.032360423356295
0.032343901693821
0.032327219843864
0.032310489565134
0.032293941825628
0.032277770340443
0.032262068241835
0.032246809452772
0.032231830060482
0.032216921448708
0.032201901078224
0.032186709344387
0.032171353697777
0.032155901193619
0.032140456140041
0.032125078141689
0.032109729945660
0.032094288617373
0.032078694552183
0.032062988728285
0.032047193497419
0.032031357288361
0.032015699893236
0.032000478357077
0.031985875219107
0.031971856951714
0.031958200037479
0.031944639980793
0.031930983066559
0.031917154788971
0.031903177499771
0.031889140605927
0.031875088810921
0.031861025840044
0.031846925616264
0.031832706183195
0.031818334013224
0.031803879886866
0.031789403408766
0.031774919480085
0.031760416924953
0.031745851039886
0.031731210649014
0.031716514378786
0.031701784580946
0.031687039881945
0.031672257930040
0.031657394021749
0.031642403453588
0.031627248972654
0.031611919403076
0.031596437096596
0.031580798327923
0.031565006822348
0.031549058854580
0.031532917171717
0.031516611576080
0.031500201672316
0.031483680009842
0.031467001885176
0.031450133770704
0.031433071941137
0.031415876001120
0.031398665159941
0.031381547451019
0.031364582479000
0.031347833573818
0.031331319361925
0.031315054744482
0.031299114227295
0.031283572316170
0.031268384307623
0.031253460794687
0.031238738447428
0.031224193051457
0.031209802255034
0.031195541843772
0.031181452795863
0.031167633831501
0.031154172495008
0.031141115352511
0.031128408387303
0.031115904450417
0.031103437766433
0.031090950593352
0.031078511849046
0.031066220253706
0.031054096296430
0.031042033806443
0.031029904261231
0.031017681583762
0.031005440279841
0.030993334949017
0.030981544405222
0.030970033258200
0.030958598479629
0.030947133898735
0.030935704708099
0.030924368649721
0.030913082882762
0.030901743099093
0.030890258029103
0.030878618359566
0.030866833403707
0.030854944139719
0.030843051150441
0.030831182375550
0.030819268897176
0.030807254835963
0.030795240774751
0.030783412978053
0.030771877616644
0.030760664492846
0.030749801546335
0.030739275738597
0.030729047954082
0.030719043686986
0.030709164217114
0.030699316412210
0.030689477920532
0.030679754912853
0.030670303851366
0.030661234632134
0.030652519315481
0.030644003301859
0.030635515227914
0.030626939609647
0.030618321150541
0.030609786510468
0.030601346865296
0.030592886731029
0.030584285035729
0.030575498938560
0.030566575005651
0.030557652935386
0.030548935756087
0.030540546402335
0.030532434582710
0.030524494126439
0.030516620725393
0.030508788302541
0.030501089990139
0.030493646860123
0.030486499890685
0.030479624867439
0.030472934246063
0.030466282740235
0.030459513887763
0.030452553182840
0.030445441603661
0.030438307672739
0.030431238934398
0.030424196273088
0.030417103320360
0.030409989878535
0.030402909964323
0.030395882204175
0.030388891696930
0.030381858348846
0.030374741181731
0.030367566272616
0.030360322445631
0.030352972447872
0.030345469713211
0.030337778851390
0.030329901725054
0.030321868136525
0.030313704162836
0.030305396765471
0.030296904966235
0.030288221314549
0.030279336497188
0.030270256102085
0.030261008068919
0.030251571908593
0.030241938307881
0.030232114717364
0.030222089961171
0.030211873352528
0.030201556161046
0.030191244557500
0.030180970206857
0.030170733109117
0.030160561203957
0.030150543898344
0.030140761286020
0.030131254345179
0.030122021213174
0.030112970620394
0.030103985220194
0.030095014721155
0.030086018145084
0.030076952651143
0.030067846179008
0.030058749020100
0.030049713328481
0.030040714889765
0.030031675472856
0.030022548511624
0.030013322830200
0.030004024505615
0.029994703829288
0.029985403642058
0.029976200312376
0.029967157170177
0.029958266764879
0.029949495568871
0.029940836131573
0.029932348057628
0.029924113303423
0.029916204512119
0.029908655211329
0.029901431873441
0.029894469305873
0.029887672513723
0.029880894348025
0.029873993247747
0.029866972938180
0.029859958216548
0.029852945357561
0.029845865443349
0.029838798567653
0.029831865802407
0.029825108125806
0.029818467795849
0.029811793938279
0.029804952442646
0.029797907918692
0.029790760949254
0.029783630743623
0.029776563867927
0.029769537970424
0.029762433841825
0.029755149036646
0.029747711494565
0.029740177094936
0.029732549563050
0.029724797233939
0.029716879129410
0.029708785936236
0.029700515791774
0.029692085459828
0.029683604836464
0.029675183817744
0.029666922986507
0.029658911749721
0.029651105403900
0.029643319547176
0.029635455459356
0.029627628624439
0.029619976878166
0.029612533748150
0.029605289921165
0.029598211869597
0.029591226950288
0.029584307223558
0.029577516019344
0.029571006074548
0.029564941301942
0.029559476301074
0.029554681852460
0.029550556093454
0.029547123238444
0.029544470831752
0.029542667791247
0.029541652649641
0.029541170224547
0.029540836811066
0.029540430754423
0.029540099203587
0.029540102928877
0.029540577903390
0.029541466385126
0.029542546719313
0.029543617740273
0.029544573277235
0.029545379802585
0.029546076431870
0.029546743258834
0.029547488316894
0.029548376798630
0.029549404978752
0.029550535604358
0.029551731422544
0.029552990570664
0.029554372653365
0.029555993154645
0.029557956382632
0.029560258612037
0.029562802985311
0.029565434902906
0.029568009078503
0.029570488259196
0.029572904109955
0.029575249180198
0.029577516019344
0.029579728841782
0.029581880196929
0.029583958908916
0.029585989192128
0.029587985947728
0.029589969664812
0.029591921716928
0.029593763872981
0.029595417901874
0.029596919193864
0.029598364606500
0.029599791392684
0.029601205140352
0.029602572321892
0.029603837057948
0.029604976996779
0.029605999588966
0.029606912285089
0.029607694596052
0.029608281329274
0.029608633369207
0.029608758166432
0.029608698561788
0.029608454555273
0.029608011245728
0.029607405886054
0.029606716707349
0.029605947434902
0.029605014249682
0.029603870585561
0.029602589085698
0.029601266607642
0.029599932953715
0.029598552733660
0.029597030952573
0.029595306143165
0.029593421146274
0.029591448605061
0.029589414596558
0.029587319120765
0.029585188254714
0.029583077877760
0.029581004753709
0.029578892514110
0.029576633125544
0.029574183747172
0.029571510851383
0.029568590223789
0.029565418139100
0.029561985284090
0.029558319598436
0.029554532840848
0.029550794512033
0.029547190293670
0.029543677344918
0.029540117830038
0.029536385089159
0.029532451182604
0.029528319835663
0.029524024575949
0.029519684612751
0.029515393078327
0.029511140659451
0.029506882652640
0.029502583667636
0.029498172923923
0.029493590816855
0.029488882049918
0.029484238475561
0.029479837045074
0.029475713148713
0.029471868649125
0.029468268156052
0.029464785009623
0.029461301863194
0.029457772150636
0.029454186558723
0.029450533911586
0.029446773231030
0.029442831873894
0.029438713565469
0.029434474185109
0.029430173337460
0.029425859451294
0.029421487823129
0.029416931793094
0.029412128031254
0.029407106339931
0.029401956126094
0.029396729543805
0.029391366988420
0.029385836794972
0.029380185529590
0.029374470934272
0.029368737712502
0.029362972825766
0.029357122257352
0.029351238161325
0.029345424845815
0.029339749366045
0.029334172606468
0.029328564181924
0.029322830960155
0.029316963627934
0.029310954734683
0.029304899275303
0.029298970475793
0.029293235391378
0.029287561774254
0.029281863942742
0.029276309534907
0.029271116480231
0.029266353696585
0.029261955991387
0.029257737100124
0.029253458604217
0.029249001294374
0.029244352132082
0.029239509254694
0.029234491288662
0.029229313135147
0.029223959892988
0.029218425974250
0.029212713241577
0.029206831008196
0.029200781136751
0.029194571077824
0.029188185930252
0.029181597754359
0.029174782335758
0.029167763888836
0.029160659760237
0.029153622686863
0.029146632179618
0.029139570891857
0.029132438823581
0.029125303030014
0.029118167236447
0.029110968112946
0.029103619977832
0.029096074402332
0.029088348150253
0.029080552980304
0.029072821140289
0.029065178707242
0.029057551175356
0.029049839824438
0.029042016714811
0.029034152626991
0.029026309028268
0.029018476605415
0.029010618105531
0.029002727940679
0.028994863852859
0.028987046331167
0.028979193419218
0.028971230611205
0.028963157907128
0.028955012559891
0.028946869075298
0.028938757255673
0.028930706903338
0.028922738507390
0.028914783149958
0.028906708583236
0.028898457065225
0.028890047222376
0.028881490230560
0.028872773051262
0.028863901272416
0.028854949399829
0.028846047818661
0.028837248682976
0.028828505426645
0.028819711878896
0.028810769319534
0.028801683336496
0.028792522847652
0.028783282265067
0.028773929923773
0.028764497488737
0.028754979372025
0.028745317831635
0.028735522180796
0.028725652024150
0.028715746477246
0.028705792501569
0.028695724904537
0.028685610741377
0.028675602748990
0.028665777295828
0.028656167909503
0.028646772727370
0.028637528419495
0.028628339990973
0.028619188815355
0.028610112145543
0.028601083904505
0.028592018410563
0.028582831844687
0.028573514893651
0.028564149513841
0.028554813936353
0.028545573353767
0.028536491096020
0.028527555987239
0.028518730774522
0.028509942814708
0.028501069173217
0.028492042794824
0.028482889756560
0.028473649173975
0.028464358299971
0.028454989194870
0.028445478528738
0.028435865417123
0.028426265344024
0.028416730463505
0.028407208621502
0.028397636488080
0.028387984260917
0.028378231450915
0.028368357568979
0.028358340263367
0.028348198160529
0.028338056057692
0.028328092768788
0.028318377211690
0.028308784589171
0.028299147263169
0.028289422392845
0.028279608115554
0.028269687667489
0.028259646147490
0.028249466791749
0.028239136561751
0.028228640556335
0.028217997401953
0.028207322582603
0.028196746483445
0.028186324983835
0.028176048770547
0.028165841475129
0.028155600652099
0.028145246207714
0.028134737163782
0.028124047443271
0.028113188222051
0.028102181851864
0.028091024607420
0.028079748153687
0.028068441897631
0.028057230636477
0.028046198189259
0.028035260736942
0.028024308383465
0.028013302013278
0.028002209961414
0.027991123497486
0.027980254963040
0.027969760820270
0.027959693223238
0.027949932962656
0.027940282598138
0.027930583804846
0.027920762076974
0.027910774573684
0.027900625020266
0.027890354394913
0.027880020439625
0.027869762852788
0.027859743684530
0.027850011363626
0.027840489521623
0.027831034734845
0.027821555733681
0.027811981737614
0.027802253141999
0.027792336419225
0.027782298624516
0.027772307395935
0.027762489393353
0.027752794325352
0.027743063867092
0.027733236551285
0.027723392471671
0.027713563293219
0.027703676372766
0.027693670243025
0.027683515101671
0.027673192322254
0.027662729844451
0.027652168646455
0.027641495689750
0.027630735188723
0.027620004490018
0.027609385550022
0.027598833665252
0.027588237076998
0.027577506378293
0.027566596865654
0.027555566281080
0.027544561773539
0.027533695101738
0.027522975578904
0.027512265369296
0.027501469478011
0.027490638196468
0.027479784563184
0.027468843385577
0.027457790449262
0.027446690946817
0.027435595169663
0.027424521744251
0.027413455769420
0.027402348816395
0.027391219511628
0.027380179613829
0.027369361370802
0.027358854189515
0.027348669245839
0.027338756248355
0.027329005300999
0.027319310232997
0.027309641242027
0.027300059795380
0.027290720492601
0.027281789109111
0.027273384854198
0.027265584096313
0.027258483693004
0.027252133935690
0.027246424928308
0.027241092175245
0.027235861867666
0.027230577543378
0.027225218713284
0.027219863608479
0.027214614674449
0.027209592983127
0.027204938232899
0.027200747281313
0.027197042480111
0.027193807065487
0.027191026136279
0.027188651263714
0.027186634019017
0.027184931561351
0.027183433994651
0.027182044461370
0.027180735021830
0.027179570868611
0.027178706601262
0.027178311720490
0.027178538963199
0.027179494500160
0.027181141078472
0.027183318510652
0.027185875922441
0.027188707143068
0.027191711589694
0.027194827795029
0.027198057621717
0.027201404795051
0.027204809710383
0.027208151295781
0.027211397886276
0.027214698493481
0.027218164876103
0.027221821248531
0.027225621044636
0.027229461818933
0.027233339846134
0.027237376198173
0.027241714298725
0.027246447280049
0.027251536026597
0.027256783097982
0.027261961251497
0.027267014607787
0.027272118255496
0.027277451008558
0.027283016592264
0.027288721874356
0.027294546365738
0.027300560846925
0.027306860312819
0.027313498780131
0.027320396155119
0.027327353134751
0.027334190905094
0.027340812608600
0.027347216382623
0.027353458106518
0.027359558269382
0.027365470305085
0.027371143922210
0.027376569807529
0.027381751686335
0.027386756613851
0.027391701936722
0.027396688237786
0.027401810511947
0.027407087385654
0.027412412688136
0.027417620643973
0.027422644197941
0.027427498251200
0.027432180941105
0.027436692267656
0.027441091835499
0.027445454150438
0.027449779212475
0.027454031631351
0.027458183467388
0.027462236583233
0.027466194704175
0.027469996362925
0.027473580092192
0.027476919814944
0.027480011805892
0.027482941746712
0.027485901489854
0.027489038184285
0.027492361143231
0.027495775371790
0.027499167248607
0.027502493932843
0.027505870908499
0.027509497478604
0.027513461187482
0.027517586946487
0.027521656826138
0.027525749057531
0.027529988437891
0.027534268796444
0.027538541704416
0.027542991563678
0.027547767385840
0.027552884072065
0.027558252215385
0.027563728392124
0.027569273486733
0.027574980631471
0.027580957859755
0.027587305754423
0.027594080194831
0.027601268142462
0.027608793228865
0.027616549283266
0.027624437585473
0.027632366865873
0.027640223503113
0.027647890150547
0.027655374258757
0.027662714943290
0.027669932693243
0.027677206322551
0.027684828266501
0.027693027630448
0.027701953426003
0.027711667120457
0.027722133323550
0.027733217924833
0.027744762599468
0.027756590396166
0.027768535539508
0.027780542150140
0.027792681008577
0.027805110439658
0.027817942202091
0.027831211686134
0.027845010161400
0.027859449386597
0.027874568477273
0.027890393510461
0.027906982228160
0.027924280613661
0.027942053973675
0.027959953993559
0.027977729216218
0.027995333075523
0.028012819588184
0.028030171990395
0.028047317638993
0.028064310550690
0.028081391006708
0.028098801150918
0.028116632252932
0.028134813532233
0.028153209015727
0.028171725571156
0.028190340846777
0.028209064155817
0.028227865695953
0.028246663510799
0.028265340253711
0.028283793479204
0.028301989659667
0.028319997712970
0.028337871655822
0.028355633839965
0.028373304754496
0.028390897437930
0.028408396989107
0.028425753116608
0.028442952781916
0.028460014611483
0.028476953506470
0.028493817895651
0.028510676696897
0.028527565300465
0.028544478118420
0.028561415150762
0.028578337281942
0.028595179319382
0.028611911460757
0.028628570958972
0.028645250946283
0.028662033379078
0.028678935021162
0.028695961460471
0.028713187202811
0.028730669990182
0.028748404234648
0.028766345232725
0.028784457594156
0.028802698478103
0.028821064159274
0.028839642181993
0.028858540579677
0.028877794742584
0.028897339478135
0.028916953131557
0.028936414048076
0.028955627232790
0.028974615037441
0.028993602842093
0.029012853279710
0.029032457619905
0.029052341356874
0.029072338715196
0.029092293232679
0.029112091287971
0.029131695628166
0.029151191934943
0.029170645400882
0.029190013185143
0.029209200292826
0.029228111729026
0.029246762394905
0.029265221208334
0.029283525422215
0.029301641508937
0.029319500550628
0.029337083920836
0.029354495927691
0.029371865093708
0.029389210045338
0.029406456276774
0.029423519968987
0.029440416023135
0.029457191005349
0.029473781585693
0.029490131884813
0.029506282880902
0.029522217810154
0.029537852853537
0.029553156346083
0.029568152502179
0.029582871124148
0.029597321525216
0.029611509293318
0.029625451192260
0.029639128595591
0.029652502387762
0.029665550217032
0.029678277671337
0.029690707102418
0.029702851548791
0.029714753851295
0.029726458713412
0.029737938195467
0.029749155044556
0.029760085046291
0.029770703986287
0.029781004413962
0.029790995642543
0.029800720512867
0.029810255393386
0.029819667339325
0.029829045757651
0.029838509857655
0.029848158359528
0.029858054593205
0.029868189245462
0.029878515750170
0.029888967052102
0.029899410903454
0.029909694567323
0.029919710010290
0.029929455369711
0.029938990250230
0.029948366805911
0.029957633465528
0.029966833069921
0.029976069927216
0.029985494911671
0.029995219781995
0.030005304142833
0.030015714466572
0.030026253312826
0.030036741867661
0.030047111213207
0.030057325959206
0.030067387968302
0.030077327042818
0.030087109655142
0.030096668750048
0.030105987563729
0.030115049332380
0.030123881995678
0.030132548883557
0.030141048133373
0.030149344354868
0.030157405883074
0.030165223404765
0.030172811821103
0.030180223286152
0.030187500640750
0.030194586142898
0.030201446264982
0.030208183452487
0.030214915052056
0.030221655964851
0.030228292569518
0.030234752222896
0.030241094529629
0.030247371643782
0.030253661796451
0.030260069295764
0.030266592279077
0.030273130163550
0.030279561877251
0.030285822227597
0.030291916802526
0.030297866091132
0.030303686857224
0.030309364199638
0.030314827337861
0.030320014804602
0.030324913561344
0.030329579487443
0.030334159731865
0.030338821932673
0.030343621969223
0.030348487198353
0.030353283509612
0.030357919633389
0.030362337827682
0.030366525053978
0.030370520427823
0.030374323949218
0.030377944931388
0.030381498858333
0.030385171994567
0.030389046296477
0.030393032357097
0.030396960675716
0.030400665476918
0.030404098331928
0.030407272279263
0.030410232022405
0.030413052067161
0.030415736138821
0.030418213456869
0.030420474708080
0.030422531068325
0.030424360185862
0.030426006764174
0.030427571386099
0.030429113656282
0.030430655926466
0.030432220548391
0.030433790758252
0.030435321852565
0.030436770990491
0.030438067391515
0.030439151450992
0.030440086498857
0.030440974980593
0.030441846698523
0.030442735180259
0.030443726107478
0.030444897711277
0.030446261167526
0.030447756871581
0.030449297279119
0.030450869351625
0.030452517792583
0.030454281717539
0.030456233769655
0.030458427965641
0.030460858717561
0.030463511124253
0.030466374009848
0.030469372868538
0.030472464859486
0.030475709587336
0.030479123815894
0.030482597649097
0.030485976487398
0.030489195138216
0.030492259189487
0.030495164915919
0.030497973784804
0.030500801280141
0.030503721907735
0.030506676062942
0.030509492382407
0.030512079596519
0.030514469370246
0.030516684055328
0.030518708750606
0.030520528554916
0.030522136017680
0.030523518100381
0.030524663627148
0.030525576323271
0.030526304617524
0.030526952818036
0.030527630820870
0.030528381466866
0.030529174953699
0.030530015006661
0.030530937016010
0.030531937256455
0.030532954260707
0.030533924698830
0.030534822493792
0.030535593628883
0.030536167323589
0.030536592006683
0.030537029728293
0.030537551268935
0.030538039281964
0.030538313090801
0.030538341030478
0.030538216233253
0.030538056045771
0.030537934973836
0.030537856742740
0.030537759885192
0.030537558719516
0.030537232756615
0.030536891892552
0.030536698177457
0.030536765232682
0.030537134036422
0.030537772923708
0.030538622289896
0.030539626255631
0.030540762469172
0.030542038381100
0.030543433502316
0.030544890090823
0.030546389520168
0.030547972768545
0.030549744144082
0.030551789328456
0.030554099008441
0.030556593090296
0.030559167265892
0.030561663210392
0.030563933774829
0.030565937981009
0.030567735433578
0.030569348484278
0.030570719391108
0.030571827664971
0.030572684481740
0.030573278665543
0.030573608353734
0.030573699623346
0.030573645606637
0.030573599040508
0.030573630705476
0.030573740601540
0.030573960393667
0.030574413016438
0.030575238168240
0.030576465651393
0.030578030273318
0.030579803511500
0.030581695958972
0.030583756044507
0.030586082488298
0.030588768422604
0.030591797083616
0.030595032498240
0.030598340556026
0.030601577833295
0.030604612082243
0.030607465654612
0.030610254034400
0.030613083392382
0.030616054311395
0.030619192868471
0.030622394755483
0.030625533312559
0.030628519132733
0.030631309375167
0.030633918941021
0.030636368319392
0.030638638883829
0.030640700832009
0.030642583966255
0.030644388869405
0.030646137893200
0.030647784471512
0.030649416148663
0.030651198700070
0.030653212219477
0.030655404552817
0.030657630413771
0.030659724026918
0.030661568045616
0.030663151293993
0.030664511024952
0.030665621161461
0.030666476115584
0.030667139217257
0.030667738988996
0.030668400228024
0.030669175088406
0.030670046806335
0.030670931562781
0.030671754851937
0.030672464519739
0.030673000961542
0.030673382803798
0.030673678964376
0.030673922970891
0.030674111098051
0.030674191191792
0.030674051493406
0.030673664063215
0.030673127621412
0.030672531574965
0.030671970918775
0.030671523883939
0.030671134591103
0.030670659616590
0.030669987201691
0.030669106170535
0.030668091028929
0.030667018145323
0.030665919184685
0.030664822086692
0.030663691461086
0.030662430450320
0.030660975724459
0.030659334734082
0.030657600611448
0.030655831098557
0.030653992667794
0.030652012676001
0.030649866908789
0.030647626146674
0.030645400285721
0.030643276870251
0.030641302466393
0.030639424920082
0.030637564137578
0.030635705217719
0.030633872374892
0.030632110312581
0.030630461871624
0.030628839507699
0.030627081170678
0.030625162646174
0.030623167753220
0.030621130019426
0.030619056895375
0.030616918578744
0.030614651739597
0.030612248927355
0.030609717592597
0.030606990680099
0.030604042112827
0.030600985512137
0.030598005279899
0.030595250427723
0.030592825263739
0.030590783804655
0.030589118599892
0.030587784945965
0.030586738139391
0.030585937201977
0.030585344880819
0.030584951862693
0.030584750697017
0.030584668740630
0.030584642663598
0.030584637075663
0.030584592372179
0.030584396794438
0.030583977699280
0.030583353713155
0.030582601204515
0.030581856146455
0.030581213533878
0.030580665916204
0.030580168589950
0.030579715967178
0.030579298734665
0.030578877776861
0.030578443780541
0.030577991157770
0.030577450990677
0.030576735734940
0.030575847253203
0.030574856325984
0.030573798343539
0.030572669580579
0.030571468174458
0.030570190399885
0.030568834394217
0.030567392706871
0.030565833672881
0.030564090237021
0.030562166124582
0.030560128390789
0.030558003112674
0.030555786564946
0.030553471297026
0.030551049858332
0.030548486858606
0.030545743182302
0.030542915686965
0.030540149658918
0.030537452548742
0.030534707009792
0.030531801283360
0.030528696253896
0.030525390058756
0.030521908774972
0.030518310144544
0.030514612793922
0.030510803684592
0.030506838113070
0.030502671375871
0.030498325824738
0.030493801459670
0.030489053577185
0.030484059825540
0.030478850007057
0.030473485589027
0.030467957258224
0.030462205410004
0.030456200242043
0.030449941754341
0.030443433672190
0.030436709523201
0.030429860576987
0.030422970652580
0.030416088178754
0.030409250408411
0.030402462929487
0.030395695939660
0.030388953164220
0.030382238328457
0.030375489965081
0.030368616804481
0.030361542478204
0.030354252085090
0.030346803367138
0.030339192599058
0.030331393703818
0.030323434621096
0.030315332114697
0.030307069420815
0.030298663303256
0.030290158465505
0.030281631276011
0.030273178592324
0.030264854431152
0.030256645753980
0.030248448252678
0.030240129679441
0.030231632292271
0.030222937464714
0.030214082449675
0.030205167829990
0.030196301639080
0.030187664553523
0.030179385095835
0.030171325430274
0.030163239687681
0.030155064538121
0.030146820470691
0.030138475820422
0.030130038037896
0.030121555551887
0.030113052576780
0.030104514211416
0.030095964670181
0.030087448656559
0.030079010874033
0.030070628970861
0.030062183737755
0.030053596943617
0.030044896528125
0.030036132782698
0.030027354136109
0.030018541961908
0.030009644106030
0.030000675469637
0.029991652816534
0.029982587322593
0.029973490163684
0.029964338988066
0.029955109581351
0.029945787042379
0.029936378821731
0.029926899820566
0.029917357489467
0.029907824471593
0.029898364096880
0.029888968914747
0.029879571869969
0.029870064929128
0.029860408976674
0.029850684106350
0.029840985313058
0.029831331223249
0.029821680858731
0.029811924323440
0.029801994562149
0.029791938140988
0.029781859368086
0.029771795496345
0.029761679470539
0.029751434922218
0.029741004109383
0.029730368405581
0.029719538986683
0.029708554968238
0.029697488993406
0.029686337336898
0.029675036668777
0.029663592576981
0.029652066528797
0.029640477150679
0.029628796502948
0.029617002233863
0.029605070129037
0.029592974111438
0.029580742120743
0.029568474739790
0.029556294903159
0.029544278979301
0.029532372951508
0.029520429670811
0.029508352279663
0.029496083036065
0.029483594000340
0.029470911249518
0.029458090662956
0.029445176944137
0.029432184994221
0.029419062659144
0.029405781999230
0.029392391443253
0.029378969222307
0.029365533962846
0.029352048411965
0.029338503256440
0.029325013980269
0.029311712831259
0.029298648238182
0.029285805299878
0.029273103922606
0.029260436072946
0.029247734695673
0.029234940186143
0.029222000390291
0.029208976775408
0.029196029528975
0.029183335602283
0.029170989990234
0.029158988967538
0.029147258028388
0.029135635122657
0.029123961925507
0.029112240299582
0.029100507497787
0.029088705778122
0.029076820239425
0.029064893722534
0.029052903875709
0.029040815308690
0.029028711840510
0.029016688466072
0.029004726558924
0.028992714360356
0.028980545699596
0.028968192636967
0.028955666348338
0.028942994773388
0.028930179774761
0.028917241841555
0.028904302045703
0.028891563415527
0.028879215940833
0.028867330402136
0.028855878859758
0.028844799846411
0.028834033757448
0.028823494911194
0.028813041746616
0.028802540153265
0.028791962191463
0.028781378641725
0.028770884498954
0.028760498389602
0.028750147670507
0.028739728033543
0.028729174286127
0.028718490153551
0.028707703575492
0.028696807101369
0.028685811907053
0.028674723580480
0.028663504868746
0.028652224689722
0.028641026467085
0.028629997745156
0.028619153425097
0.028608439490199
0.028597807511687
0.028587212786078
0.028576580807567
0.028565876185894
0.028555093333125
0.028544200584292
0.028533155098557
0.028521966189146
0.028510643169284
0.028499171137810
0.028487535193563
0.028475722298026
0.028463773429394
0.028451791033149
0.028439784422517
0.028427682816982
0.028415441513062
0.028403064236045
0.028390590101480
0.028378034010530
0.028365375474095
0.028352599591017
0.028339687734842
0.028326654806733
0.028313580900431
0.028300566598773
0.028287673369050
0.028274919837713
0.028262296691537
0.028249697759748
0.028236998245120
0.028224227949977
0.028211485594511
0.028198733925819
0.028185902163386
0.028173029422760
0.028160212561488
0.028147445991635
0.028134597465396
0.028121605515480
0.028108546510339
0.028095481917262
0.028082376345992
0.028069138526917
0.028055708855391
0.028042118996382
0.028028467670083
0.028014890849590
0.028001477941871
0.027988210320473
0.027975015342236
0.027961848303676
0.027948703616858
0.027935545891523
0.027922337874770
0.027909109368920
0.027895886451006
0.027882663533092
0.027869399636984
0.027856025844812
0.027842534705997
0.027829010039568
0.027815554291010
0.027802195400000
0.027788836508989
0.027775369584560
0.027761846780777
0.027748402208090
0.027735086157918
0.027721881866455
0.027708768844604
0.027695732191205
0.027682781219482
0.027670027688146
0.027657626196742
0.027645656839013
0.027634063735604
0.027622701600194
0.027611432597041
0.027600226923823
0.027589147910476
0.027578284963965
0.027567625045776
0.027557000517845
0.027546301484108
0.027535591274500
0.027524987235665
0.027514569461346
0.027504310011864
0.027494089677930
0.027483778074384
0.027473323047161
0.027462819591165
0.027452377602458
0.027441993355751
0.027431670576334
0.027421351522207
0.027410957962275
0.027400616556406
0.027390534058213
0.027380770072341
0.027371192350984
0.027361577376723
0.027351848781109
0.027342081069946
0.027332343161106
0.027322676032782
0.027313046157360
0.027303341776133
0.027293466031551
0.027283413335681
0.027273286134005
0.027263214811683
0.027253229171038
0.027243357151747
0.027233688160777
0.027224330231547
0.027215443551540
0.027207080274820
0.027199093252420
0.027191281318665
0.027183465659618
0.027175540104508
0.027167500928044
0.027159349992871
0.027151063084602
0.027142671868205
0.027134284377098
0.027126003056765
0.027117850258946
0.027109792456031
0.027101775631309
0.027094017714262
0.027087332680821
0.027083063498139
0.027082799002528
0.027088223025203
0.027100916951895
0.027122195810080
0.027153005823493
0.027193829417229
0.027244715020061
0.027305414900184
0.027375474572182
0.027454314753413
0.027541333809495
0.027635861188173
0.027737086638808
0.027844183146954
0.027956277132034
0.028072388842702
0.028191601857543
0.028313133865595
0.028436191380024
0.028559915721416
0.028683526441455
0.028806775808334
0.028930123895407
0.029054284095764
0.029179925099015
0.029307719320059
0.029438266530633
0.029572095721960
0.029709775000811
0.029851865023375
0.029998820275068
0.030151009559631
0.030308801680803
0.030472576618195
0.030642645433545
0.030819272622466
0.031002694740891
0.031193161383271
0.031390774995089
0.031595472246408
0.031807221472263
0.032026022672653
0.032251883298159
0.032484803348780
0.032724779099226
0.032971844077110
0.033225987106562
0.033487107604742
0.033755112439394
0.034030005335808
0.034311760216951
0.034600190818310
0.034895040094852
0.035196032375097
0.035502858459949
0.035815145820379
0.036132454872131
0.036454342305660
0.036780394613743
0.037110310047865
0.037443861365318
0.037780810147524
0.038120988756418
0.038464248180389
0.038810350000858
0.039158921688795
0.039509516209364
0.039861649274826
0.040214862674475
0.040568791329861
0.040923092514277
0.041277442127466
0.041631601750851
0.041985344141722
0.042338434606791
0.042690671980381
0.043041873723269
0.043391752988100
0.043740026652813
0.044086746871471
0.044432256370783
0.044776905328035
0.045121017843485
0.045464966446161
0.045809153467417
0.046153943985701
0.046499621123075
0.046846374869347
0.047194302082062
0.047543384134769
0.047893531620502
0.048244714736938
0.048597019165754
0.048950634896755
0.049305785447359
0.049662638455629
0.050021324306726
0.050382006913424
0.050744831562042
0.051109876483679
0.051477223634720
0.051846943795681
0.052218977361917
0.052593197673559
0.052969466894865
0.053347714245319
0.053728003054857
0.054110549390316
0.054495643824339
0.054883603006601
0.055274639278650
0.055668819695711
0.056066162884235
0.056466564536095
0.056869786232710
0.057275589555502
0.057683799415827
0.058094307780266
0.058507017791271
0.058921836316586
0.059338681399822
0.059757530689240
0.060178376734257
0.060601167380810
0.061025708913803
0.061451651155949
0.061878595501184
0.062306169420481
0.062734022736549
0.063161820173264
0.063589341938496
0.064016565680504
0.064443536102772
0.064870178699493
0.065296329557896
0.065721809864044
0.066146425902843
0.066570073366165
0.066992729902267
0.067414268851280
0.067834541201591
0.068253353238106
0.068670511245728
0.069085858762264
0.069499306380749
0.069910809397697
0.070320293307304
0.070727698504925
0.071132987737656
0.071536101400852
0.071936942636967
0.072335503995419
0.072731934487820
0.073126479983330
0.073519334197044
0.073910593986511
0.074300296604633
0.074688412249088
0.075074896216393
0.075459778308868
0.075843118131161
0.076225057244301
0.076605804264545
0.076985508203506
0.077364183962345
0.077741786837578
0.078118301928043
0.078493803739548
0.078868351876736
0.079242013394833
0.079614847898483
0.079986862838268
0.080357961356640
0.080728039145470
0.081097044050694
0.081464916467667
0.081831641495228
0.082197338342667
0.082562163472176
0.082926332950592
0.083289958536625
0.083652928471565
0.084015004336834
0.084375984966755
0.084735721349716
0.085094191133976
0.085451476275921
0.085807688534260
0.086162887513638
0.086517140269279
0.086870387196541
0.087222449481487
0.087573111057281
0.087922148406506
0.088269464671612
0.088615059852600
0.088959001004696
0.089301340281963
0.089642085134983
0.089981190860271
0.090318426489830
0.090653538703918
0.090986594557762
0.091317906975746
0.091647736728191
0.091976203024387
0.092303335666656
0.092629157006741
0.092953585088253
0.093276530504227
0.093597844243050
0.093917332589626
0.094234824180603
0.094550222158432
0.094863452017307
0.095174536108971
0.095483601093292
0.095790758728981
0.096096053719521
0.096399515867233
0.096701264381409
0.097001507878304
0.097300402820110
0.097597956657410
0.097894087433815
0.098188683390617
0.098481640219688
0.098772816359997
0.099062077701092
0.099349312484264
0.099634498357773
0.099917598068714
0.100198641419411
0.100477732717991
0.100754961371422
0.101030409336090
0.101304106414318
0.101576000452042
0.101846061646938
0.102114334702492
0.102380856871605
0.102645635604858
0.102908596396446
0.103169672191143
0.103428825736046
0.103686079382896
0.103941515088081
0.104195244610310
0.104447342455387
0.104697845876217
0.104946769773960
0.105194091796875
0.105439707636833
0.105683520436287
0.105925448238850
0.106165453791618
0.106403507292271
0.106639608740807
0.106873877346516
0.107106462121010
0.107337415218353
0.107566706836224
0.107794307172298
0.108020305633545
0.108244881033897
0.108468145132065
0.108690105378628
0.108910799026489
0.109130308032036
0.109348706901073
0.109565958380699
0.109781898558140
0.109996430575848
0.110209427773952
0.110420666635036
0.110629998147488
0.110837429761887
0.111043125391006
0.111247248947620
0.111449889838696
0.111651107668877
0.111850947141647
0.112049445509911
0.112246669828892
0.112442769110203
0.112637892365456
0.112832091748714
0.113025389611721
0.113217696547508
0.113408915698528
0.113598942756653
0.113787651062012
0.113974951207638
0.114160798490047
0.114345155656338
0.114527970552444
0.114709213376045
0.114888839423656
0.115066811442375
0.115243114531040
0.115417741239071
0.115590721368790
0.115762062370777
0.115931734442711
0.116099685430527
0.116265870630741
0.116430290043354
0.116592980921268
0.116753987967968
0.116913311183453
0.117070928215981
0.117226831614971
0.117381073534489
0.117533750832081
0.117684893310070
0.117834553122520
0.117982782423496
0.118129588663578
0.118274860084057
0.118418499827385
0.118560463190079
0.118700794875622
0.118839494884014
0.118976548314095
0.119111940264702
0.119245640933514
0.119377687573433
0.119508169591427
0.119637228548527
0.119764864444733
0.119890950620174
0.120015457272530
0.120138473808765
0.120260074734688
0.120380192995071
0.120498806238174
0.120616026222706
0.120731942355633
0.120846569538116
0.120959892868996
0.121071800589561
0.121182188391685
0.121291078627110
0.121398568153381
0.121504738926888
0.121609635651112
0.121713280677795
0.121815562248230
0.121916390955448
0.122015751898289
0.122113652527332
0.122210115194321
0.122305184602737
0.122398920357227
0.122491359710693
0.122582465410233
0.122672155499458
0.122760355472565
0.122847087681293
0.122932381927967
0.123016200959682
0.123098544776440
0.123179428279400
0.123258925974369
0.123337119817734
0.123413980007172
0.123489439487457
0.123563557863235
0.123636513948441
0.123708441853523
0.123779304325581
0.123849019408226
0.123917527496815
0.123984746634960
0.124050647020340
0.124115206301212
0.124178357422352
0.124240092933178
0.124300502240658
0.124359652400017
0.124417580664158
0.124474339187145
0.124529890716076
0.124584183096886
0.124637216329575
0.124688990414143
0.124739453196526
0.124788612127304
0.124836519360542
0.124883234500885
0.124928779900074
0.124973170459270
0.125016346573830
0.125058218836784
0.125098779797554
0.125138103961945
0.125176295638084
0.125213429331779
0.125249460339546
0.125284314155579
0.125318050384521
0.125350818037987
0.125382632017136
0.125413402915001
0.125443026423454
0.125471502542496
0.125498980283737
0.125525578856468
0.125551387667656
0.125576391816139
0.125600486993790
0.125623509287834
0.125645413994789
0.125666171312332
0.125685811042786
0.125704392790794
0.125722005963326
0.125738725066185
0.125754490494728
0.125769302248955
0.125783130526543
0.125795975327492
0.125807821750641
0.125818550586700
0.125828102231026
0.125836461782455
0.125843733549118
0.125849902629852
0.125854954123497
0.125858902931213
0.125861942768097
0.125864163041115
0.125865623354912
0.125866293907166
0.125866010785103
0.125864639878273
0.125862181186676
0.125858649611473
0.125854060053825
0.125848397612572
0.125841617584229
0.125833749771118
0.125824838876724
0.125815048813820
0.125804468989372
0.125793129205704
0.125781118869781
0.125768393278122
0.125754907727242
0.125740677118301
0.125725686550140
0.125709906220436
0.125693291425705
0.125675782561302
0.125657275319099
0.125637710094452
0.125617071986198
0.125595420598984
0.125572904944420
0.125549659132957
0.125525847077370
0.125501543283463
0.125476866960526
0.125451922416687
0.125426679849625
0.125401034951210
0.125374749302864
0.125347614288330
0.125319510698318
0.125290393829346
0.125260278582573
0.125229269266129
0.125197395682335
0.125164583325386
0.125130802392960
0.125096067786217
0.125060409307480
0.125023916363716
0.124986626207829
0.124948471784592
0.124909400939941
0.124869428575039
0.124828599393368
0.124786980450153
0.124744661152363
0.124701678752899
0.124657943844795
0.124613389372826
0.124567992985249
0.124521754682064
0.124474704265594
0.124426849186420
0.124378144741058
0.124328576028347
0.124278098344803
0.124226734042168
0.124174483120441
0.124121330678463
0.124067284166813
0.124012343585491
0.123956546187401
0.123899914324284
0.123842440545559
0.123784214258194
0.123725339770317
0.123665824532509
0.123605608940125
0.123544663190842
0.123482972383499
0.123420506715775
0.123357288539410
0.123293288052082
0.123228497803211
0.123162932693958
0.123096607625484
0.123029522597790
0.122961647808552
0.122892975807190
0.122823566198349
0.122753523290157
0.122682936489582
0.122611813247204
0.122540041804314
0.122467502951622
0.122394159436226
0.122319988906384
0.122245028614998
0.122169345617294
0.122092984616756
0.122015975415707
0.121938355267048
0.121860064566135
0.121781043708324
0.121701389551163
0.121621325612068
0.121541082859039
0.121460780501366
0.121380321681499
0.121299542486668
0.121218271553516
0.121136359870434
0.121053740382195
0.120970413088799
0.120886363089085
0.120801635086536
0.120716288685799
0.120630398392677
0.120544053614140
0.120457261800766
0.120369985699654
0.120282210409641
0.120193935930729
0.120105177164078
0.120015881955624
0.119925953447819
0.119835324585438
0.119743995368481
0.119652032852173
0.119559474289417
0.119466282427311
0.119372434914112
0.119277991354465
0.119183078408241
0.119087815284729
0.118992231786251
0.118896305561066
0.118800036609173
0.118703462183475
0.118606612086296
0.118509478867054
0.118411995470524
0.118314065039158
0.118215695023537
0.118117049336433
0.118018269538879
0.117919340729713
0.117820069193840
0.117720261216164
0.117619879543781
0.117518991231918
0.117417663335800
0.117315925657749
0.117213778197765
0.117111116647720
0.117007881402969
0.116904132068157
0.116800017654896
0.116695582866669
0.116590768098831
0.116485469043255
0.116379626095295
0.116273216903210
0.116166286170483
0.116058841347694
0.115950845181942
0.115842312574387
0.115733325481415
0.115623846650124
0.115513823926449
0.115403264760971
0.115292184054852
0.115180633962154
0.115068584680557
0.114955984055996
0.114842839539051
0.114729195833206
0.114615045487881
0.114500351250172
0.114385098218918
0.114269323647022
0.114153079688549
0.114036433398724
0.113919503986835
0.113802261650562
0.113684624433517
0.113566480576992
0.113447852432728
0.113328836858273
0.113209523260593
0.113089941442013
0.112970016896725
0.112849637866020
0.112728796899319
0.112607523798943
0.112485788762569
0.112363681197166
0.112241342663765
0.112118758261204
0.111995816230774
0.111872471868992
0.111748695373535
0.111624486744404
0.111499920487404
0.111375063657761
0.111249864101410
0.111124284565449
0.110998325049877
0.110871978104115
0.110745273530483
0.110618226230145
0.110490798950195
0.110362946987152
0.110234715044498
0.110106125473976
0.109977155923843
0.109847761690617
0.109717994928360
0.109587915241718
0.109457507729530
0.109326705336571
0.109195522964001
0.109064012765884
0.108932152390480
0.108799941837788
0.108667470514774
0.108534879982471
0.108402326703072
0.108269900083542
0.108137540519238
0.108005106449127
0.107872433960438
0.107739418745041
0.107606045901775
0.107472307980061
0.107338204979897
0.107203818857670
0.107069253921509
0.106934599578381
0.106799885630608
0.106664985418320
0.106529824435711
0.106394432485104
0.106258846819401
0.106123067438602
0.105987042188644
0.105850711464882
0.105714067816734
0.105577081441879
0.105439774692059
0.105302132666111
0.105164177715778
0.105025961995125
0.104887612164021
0.104749202728271
0.104610800743103
0.104472383856773
0.104333870112896
0.104195162653923
0.104056246578693
0.103917174041271
0.103777982294559
0.103638671338558
0.103499226272106
0.103359654545784
0.103219918906689
0.103079989552498
0.102939940989017
0.102799884974957
0.102659873664379
0.102519847452641
0.102379716932774
0.102239385247231
0.102098830044270
0.101958036422729
0.101817049086094
0.101675942540169
0.101534776389599
0.101393572986126
0.101252302527428
0.101110875606537
0.100969225168228
0.100827299058437
0.100685164332390
0.100542940199375
0.100400738418102
0.100258640944958
0.100116588175297
0.099974416196346
0.099832065403461
0.099689558148384
0.099546954035759
0.099404238164425
0.099261380732059
0.099118344485760
0.098975129425526
0.098831735551357
0.098688177764416
0.098544470965862
0.098400548100471
0.098256379365921
0.098112002015114
0.097967483103275
0.097822852432728
0.097678095102310
0.097533218562603
0.097388170659542
0.097242899239063
0.097097381949425
0.096951656043530
0.096805714070797
0.096659570932388
0.096513248980045
0.096366807818413
0.096220277249813
0.096073620021343
0.095926761627197
0.095779702067375
0.095632545650005
0.095485396683216
0.095338329672813
0.095191359519958
0.095044419169426
0.094897426664829
0.094750352203846
0.094603285193443
0.094456255435944
0.094309180974960
0.094161979854107
0.094014696776867
0.093867354094982
0.093719929456711
0.093572385609150
0.093424797058105
0.093277223408222
0.093129679560661
0.092982128262520
0.092834524810314
0.092686779797077
0.092538878321648
0.092390887439251
0.092242896556854
0.092094875872135
0.091946713626385
0.091798387467861
0.091649912297726
0.091501273214817
0.091352477669716
0.091203533113003
0.091054417192936
0.090905115008354
0.090755656361580
0.090606063604355
0.090456336736679
0.090306565165520
0.090156942605972
0.090007536113262
0.089858219027519
0.089708827435970
0.089559331536293
0.089409776031971
0.089260108768940
0.089110292494297
0.088960334658623
0.088810257613659
0.088660039007664
0.088509701192379
0.088359288871288
0.088208831846714
0.088058285415173
0.087907612323761
0.087756797671318
0.087605923414230
0.087455019354820
0.087304040789604
0.087152965366840
0.087001793086529
0.086850568652153
0.086699403822422
0.086548306047916
0.086397208273411
0.086246095597744
0.086094975471497
0.085943832993507
0.085792690515518
0.085641629993916
0.085490763187408
0.085340023040771
0.085189290344715
0.085038580000401
0.084887966513634
0.084737442433834
0.084586903452873
0.084436275064945
0.084285616874695
0.084135010838509
0.083984434604645
0.083833806216717
0.083683066070080
0.083532243967056
0.083381421864033
0.083230696618557
0.083080150187016
0.082929760217667
0.082779459655285
0.082629166543484
0.082478813827038
0.082328379154205
0.082177884876728
0.082027412950993
0.081877157092094
0.081727221608162
0.081577584147453
0.081428088247776
0.081278584897518
0.081129036843777
0.080979436635971
0.080829784274101
0.080680102109909
0.080530405044556
0.080380707979202
0.080230943858624
0.080081112682819
0.079931303858757
0.079781614243984
0.079632028937340
0.079482480883598
0.079332910478115
0.079183310270309
0.079033732414246
0.078884251415730
0.078734926879406
0.078585833311081
0.078437082469463
0.078288786113262
0.078141026198864
0.077993720769882
0.077846683561802
0.077699765563011
0.077552855014801
0.077405907213688
0.077258944511414
0.077112056314945
0.076965339481831
0.076818890869617
0.076672770082951
0.076526917517185
0.076381243765354
0.076235704123974
0.076090365648270
0.075945332646370
0.075800560414791
0.075655952095985
0.075511366128922
0.075366742908955
0.075222074985504
0.075077392160892
0.074932701885700
0.074788004159927
0.074643313884735
0.074498616158962
0.074353933334351
0.074209310114384
0.074064761400223
0.073920257389545
0.073775783181190
0.073631323873997
0.073486894369125
0.073342531919479
0.073198243975639
0.073054015636444
0.072909824550152
0.072765640914440
0.072621457278728
0.072477266192436
0.072333142161369
0.072189189493656
0.072045497596264
0.071902059018612
0.071758754551411
0.071615517139435
0.071472376585007
0.071329340338707
0.071186386048794
0.071043476462364
0.070900604128838
0.070757776498795
0.070614978671074
0.070472210645676
0.070329569280148
0.070187121629715
0.070044815540314
0.069902613759041
0.069760493934155
0.069618396461010
0.069476366043091
0.069334447383881
0.069192588329315
0.069050788879395
0.068909130990505
0.068767637014389
0.068626262247562
0.068484976887703
0.068343847990036
0.068202905356884
0.068062074482441
0.067921288311481
0.067780613899231
0.067640170454979
0.067500047385693
0.067360267043114
0.067220918834209
0.067082010209560
0.066943451762199
0.066805072128773
0.066666774451733
0.066528506577015
0.066390275955200
0.066252112388611
0.066114105284214
0.065976366400719
0.065838970243931
0.065701834857464
0.065564848482609
0.065428003668785
0.065291270613670
0.065154604613781
0.065017968416214
0.064881369471550
0.064744830131531
0.064608365297318
0.064472042024136
0.064335852861404
0.064199760556221
0.064063847064972
0.063928194344044
0.063792780041695
0.063657544553280
0.063522621989250
0.063388265669346
0.063254661858082
0.063121773302555
0.062989376485348
0.062857165932655
0.062724977731705
0.062592804431915
0.062460713088512
0.062328767031431
0.062197014689445
0.062065541744232
0.061934448778629
0.061803828924894
0.061673793941736
0.061544422060251
0.061415676027536
0.061287522315979
0.061159931123257
0.061032842844725
0.060906227678061
0.060780089348555
0.060654431581497
0.060529220849276
0.060404427349567
0.060280054807663
0.060156036168337
0.060032229870558
0.059908565133810
0.059785231947899
0.059662483632565
0.059540349990129
0.059418670833111
0.059297211468220
0.059175819158554
0.059054464101791
0.058933120220900
0.058811787515879
0.058690518140793
0.058569371700287
0.058448374271393
0.058327559381723
0.058206893503666
0.058086276054382
0.057965651154518
0.057845033705235
0.057724460959435
0.057603936642408
0.057483434677124
0.057362966239452
0.057242549955845
0.057122163474560
0.057001791894436
0.056881453841925
0.056761212646961
0.056641198694706
0.056521534919739
0.056402288377285
0.056283462792635
0.056164931505919
0.056046534329653
0.055928181856871
0.055809866636992
0.055691566318274
0.055573288351297
0.055455058813095
0.055336929857731
0.055219031870365
0.055101592093706
0.054984785616398
0.054868616163731
0.054752916097641
0.054637476801872
0.054522141814232
0.054406847804785
0.054291650652885
0.054176680743694
0.054062083363533
0.053947933018208
0.053834166377783
0.053720638155937
0.053607210516930
0.053493883460760
0.053380735218525
0.053267836570740
0.053155247122049
0.053042996674776
0.052931040525436
0.052819348871708
0.052707940340042
0.052596841007471
0.052486039698124
0.052375558763742
0.052265442907810
0.052155707031488
0.052046358585358
0.051937401294708
0.051828783005476
0.051720380783081
0.051612075418234
0.051503825932741
0.051395636051893
0.051287498325109
0.051179431378841
0.051071483641863
0.050963703542948
0.050856187939644
0.050749067217112
0.050642360001802
0.050535980612040
0.050429798662663
0.050323698669672
0.050217650830746
0.050111681222916
0.050005950033665
0.049900654703379
0.049795888364315
0.049691654741764
0.049587875604630
0.049484424293041
0.049381181597710
0.049278132617474
0.049175385385752
0.049073141068220
0.048971567302942
0.048870764672756
0.048770751804113
0.048671446740627
0.048572689294815
0.048474345356226
0.048376396298409
0.048278760164976
0.048181317746639
0.048084121197462
0.047987248748541
0.047890588641167
0.047794025391340
0.047697685658932
0.047601811587811
0.047506559640169
0.047412008047104
0.047318141907454
0.047224834561348
0.047131948173046
0.047039352357388
0.046946920454502
0.046854585409164
0.046762350946665
0.046670205891132
0.046578139066696
0.046486135572195
0.046394143253565
0.046302143484354
0.046210154891014
0.046118188649416
0.046026334166527
0.045934736728668
0.045843496918678
0.045752614736557
0.045661985874176
0.045571487396955
0.045481037348509
0.045390654355288
0.045300420373678
0.045210376381874
0.045120555907488
0.045031026005745
0.044941779226065
0.044852778315544
0.044764053076506
0.044675592333078
0.044587273150682
0.044499013572931
0.044410903006792
0.044323030859232
0.044235393404961
0.044147942215204
0.044060610234737
0.043973311781883
0.043886039406061
0.043798837810755
0.043711818754673
0.043625079095364
0.043538603931665
0.043452300131321
0.043366063386202
0.043279878795147
0.043193750083447
0.043107695877552
0.043021760880947
0.042936004698277
0.042850557714701
0.042765460908413
0.042680602520704
0.042595867067575
0.042511261999607
0.042426835745573
0.042342744767666
0.042259115725756
0.042175911366940
0.042093005031347
0.042010273784399
0.041927672922611
0.041845310479403
0.041763383895159
0.041682012379169
0.041601166129112
0.041520703583956
0.041440449655056
0.041360341012478
0.041280422359705
0.041200786828995
0.041121553629637
0.041042860597372
0.040964797139168
0.040887352079153
0.040810450911522
0.040733922272921
0.040657583624125
0.040581308305264
0.040505044162273
0.040428847074509
0.040352765470743
0.040276773273945
0.040200904011726
0.040125250816345
0.040049843490124
0.039974652230740
0.039899680763483
0.039824921637774
0.039750345051289
0.039675895124674
0.039601493626833
0.039527088403702
0.039452657103539
0.039378218352795
0.039303805679083
0.039229393005371
0.039154965430498
0.039080537855625
0.039006117731333
0.038931712508202
0.038857374340296
0.038783248513937
0.038709454238415
0.038636010140181
0.038562774658203
0.038489595055580
0.038416501134634
0.038343705236912
0.038271419703960
0.038199633359909
0.038128148764372
0.038056798279285
0.037985574454069
0.037914518266916
0.037843629717827
0.037772919982672
0.037702385336161
0.037632063031197
0.037562008947134
0.037492252886295
0.037422813475132
0.037353701889515
0.037284903228283
0.037216402590275
0.037148147821426
0.037080094218254
0.037012226879597
0.036944605410099
0.036877397447824
0.036810755729675
0.036744665354490
0.036679014563560
0.036613691598177
0.036548577249050
0.036483541131020
0.036418579518795
0.036353766918182
0.036289177834988
0.036224815994501
0.036160677671432
0.036096863448620
0.036033518612385
0.035970743745565
0.035908564925194
0.035846944898367
0.035785809159279
0.035725060850382
0.035664573311806
0.035604238510132
0.035543981939554
0.035483859479427
0.035424020141363
0.035364564508200
0.035305522382259
0.035246882587671
0.035188641399145
0.035130813717842
0.035073421895504
0.035016380250454
0.034959558397532
0.034902825951576
0.034846097230911
0.034789331257343
0.034732531756163
0.034675814211369
0.034619335085154
0.034563191235065
0.034507390111685
0.034451831132174
0.034396380186081
0.034340910613537
0.034285377711058
0.034229863435030
0.034174546599388
0.034119565039873
0.034064907580614
0.034010477364063
0.033956151455641
0.033901840448380
0.033847600221634
0.033793564885855
0.033739797770977
0.033686265349388
0.033632867038250
0.033579517155886
0.033526238054037
0.033473074436188
0.033420018851757
0.033367037773132
0.033314105123281
0.033261246979237
0.033208452165127
0.033155687153339
0.033103004097939
0.033050451427698
0.032998021692038
0.032945673912764
0.032893382012844
0.032841179519892
0.032789170742035
0.032737452536821
0.032685976475477
0.032634589821100
0.032583165913820
0.032531693577766
0.032480198889971
0.032428663223982
0.032377071678638
0.032325435429811
0.032273832708597
0.032222274690866
0.032170709222555
0.032119154930115
0.032067686319351
0.032016336917877
0.031965069472790
0.031913947314024
0.031863123178482
0.031812645494938
0.031762402504683
0.031712271273136
0.031662311404943
0.031612601131201
0.031563125550747
0.031513806432486
0.031464569270611
0.031415425240993
0.031366471201181
0.031317833811045
0.031269621104002
0.031221905723214
0.031174680218101
0.031127909198403
0.031081559136510
0.031035594642162
0.030989982187748
0.030944721773267
0.030899841338396
0.030855368822813
0.030811322852969
0.030767722055316
0.030724577605724
0.030681869015098
0.030639544129372
0.030597520992160
0.030555689707398
0.030514018610120
0.030472531914711
0.030431194230914
0.030389888212085
0.030348559841514
0.030307285487652
0.030266130343080
0.030225040391088
0.030184013769031
0.030143139883876
0.030102448537946
0.030061930418015
0.030021639540792
0.029981592670083
0.029941681772470
0.029901770874858
0.029861818999052
0.029821878299117
0.029782032594085
0.029742283746600
0.029702540487051
0.029662724584341
0.029622830450535
0.029582895338535
0.029542921110988
0.029502937570214
0.029463047161698
0.029423313215375
0.029383730143309
0.029344320297241
0.029305139556527
0.029266262426972
0.029227761551738
0.029189603403211
0.029151724651456
0.029114194214344
0.029077196493745
0.029040930792689
0.029005540534854
0.028971061110497
0.028937397524714
0.028904329985380
0.028871623799205
0.028839094564319
0.028806572780013
0.028773989528418
0.028741363435984
0.028708714991808
0.028676055371761
0.028643390163779
0.028610695153475
0.028577914461493
0.028545029461384
0.028512086719275
0.028479129076004
0.028446128591895
0.028413094580173
0.028380097821355
0.028347168117762
0.028314305469394
0.028281474485993
0.028248645365238
0.028215864673257
0.028183232992887
0.028150806203485
0.028118574991822
0.028086494654417
0.028054524213076
0.028022691607475
0.027991078794003
0.027959732338786
0.027928626164794
0.027897646650672
0.027866652235389
0.027835609391332
0.027804551646113
0.027773475274444
0.027742387726903
0.027711382135749
0.027680587023497
0.027650123462081
0.027620101347566
0.027590582147241
0.027561563998461
0.027532940730453
0.027504557743669
0.027476331219077
0.027448214590549
0.027420166879892
0.027392210438848
0.027364367619157
0.027336573228240
0.027308741584420
0.027280870825052
0.027252962812781
0.027224957942963
0.027196854352951
0.027168750762939
0.027140734717250
0.027112826704979
0.027085008099675
0.027057297527790
0.027029739692807
0.027002375572920
0.026975208893418
0.026948146522045
0.026921065524220
0.026893900707364
0.026866653934121
0.026839375495911
0.026812192052603
0.026785211637616
0.026758396998048
0.026731655001640
0.026704901829362
0.026678089052439
0.026651233434677
0.026624448597431
0.026597866788507
0.026571448892355
0.026545071974397
0.026518814265728
0.026492886245251
0.026467317715287
0.026441978290677
0.026416713371873
0.026391448453069
0.026366235688329
0.026341190561652
0.026316413655877
0.026291964575648
0.026267768815160
0.026243634521961
0.026219436898828
0.026195181533694
0.026170901954174
0.026146616786718
0.026122391223907
0.026098327711225
0.026074459776282
0.026050718501210
0.026027014479041
0.026003330945969
0.025979690253735
0.025956053286791
0.025932380929589
0.025908706709743
0.025885082781315
0.025861565023661
0.025838198140264
0.025814991444349
0.025791859254241
0.025768686085939
0.025745490565896
0.025722382590175
0.025699375197291
0.025676345452666
0.025653222575784
0.025630010291934
0.025606768205762
0.025583567097783
0.025560423731804
0.025537356734276
0.025514476001263
0.025491939857602
0.025469865649939
0.025448350235820
0.025427520275116
0.025407416746020
0.025388015434146
0.025369288399816
0.025351148098707
0.025333380326629
0.025315726175904
0.025298016145825
0.025280201807618
0.025262296199799
0.025244358927011
0.025226481258869
0.025208774954081
0.025191377848387
0.025174312293530
0.025157477706671
0.025140773504972
0.025124177336693
0.025107692927122
0.025091357529163
0.025075236335397
0.025059351697564
0.025043694302440
0.025028223171830
0.025012867525220
0.024997558444738
0.024982236325741
0.024966852739453
0.024951426312327
0.024936066940427
0.024920895695686
0.024905985221267
0.024891464039683
0.024877479299903
0.024864099919796
0.024851383641362
0.024839416146278
0.024828203022480
0.024817561730742
0.024807164445519
0.024796739220619
0.024786166846752
0.024775493890047
0.024764949455857
0.024754868820310
0.024745492264628
0.024736883118749
0.024729022756219
0.024721805006266
0.024715000763535
0.024708461016417
0.024702141061425
0.024695970118046
0.024689847603440
0.024683659896255
0.024677312001586
0.024670807644725
0.024664217606187
0.024657536298037
0.024650754407048
0.024643970653415
0.024637313559651
0.024630839005113
0.024624506011605
0.024618180468678
0.024611750617623
0.024605227634311
0.024598719552159
0.024592308327556
0.024585982784629
0.024579662829638
0.024573288857937
0.024566814303398
0.024560211226344
0.024553464725614
0.024546563625336
0.024539493024349
0.024532277137041
0.024524964392185
0.024517551064491
0.024510024115443
0.024502422660589
0.024494810029864
0.024487273767591
0.024479923769832
0.024472858756781
0.024466134607792
0.024459706619382
0.024453440681100
0.024447178468108
0.024440804496408
0.024434279650450
0.024427598342299
0.024420753121376
0.024413773790002
0.024406744167209
0.024399686604738
0.024392539635301
0.024385364726186
0.024378340691328
0.024371566250920
0.024365002289414
0.024358550086617
0.024352150037885
0.024345841258764
0.024339783936739
0.024334089830518
0.024328732863069
0.024323629215360
0.024318631738424
0.024313606321812
0.024308476597071
0.024303251877427
0.024297975003719
0.024292645975947
0.024287262931466
0.024281857535243
0.024276519194245
0.024271328002214
0.024266296997666
0.024261303246021
0.024256205186248
0.024250982329249
0.024245649576187
0.024240195751190
0.024234605953097
0.024228876456618
0.024223050102592
0.024217193946242
0.024211300536990
0.024205330759287
0.024199342355132
0.024193445220590
0.024187665432692
0.024181941524148
0.024176174774766
0.024170329794288
0.024164427071810
0.024158431217074
0.024152310565114
0.024146102368832
0.024139821529388
0.024133432656527
0.024126911535859
0.024120286107063
0.024113677442074
0.024107247591019
0.024101072922349
0.024095166474581
0.024089531973004
0.024084143340588
0.024078881368041
0.024073602631688
0.024068288505077
0.024063000455499
0.024057801812887
0.024052686989307
0.024047585204244
0.024042434990406
0.024037200957537
0.024031898006797
0.024026526138186
0.024021049961448
0.024015499278903
0.024009987711906
0.024004574865103
0.023999253287911
0.023993976414204
0.023988679051399
0.023983357474208
0.023978104814887
0.023973064497113
0.023968370631337
0.023964013904333
0.023959860205650
0.023955728858709
0.023951465263963
0.023947006091475
0.023942379280925
0.023937616497278
0.023932721465826
0.023927727714181
0.023922661319375
0.023917546495795
0.023912500590086
0.023907750844955
0.023903541266918
0.023899957537651
0.023896956816316
0.023894427344203
0.023892238736153
0.023890295997262
0.023888517171144
0.023886751383543
0.023884870111942
0.023882839828730
0.023880658671260
0.023878397420049
0.023876246064901
0.023874312639236
0.023872572928667
0.023870972916484
0.023869488388300
0.023868098855019
0.023866692557931
0.023865129798651
0.023863382637501
0.023861516267061
0.023859592154622
0.023857599124312
0.023855496197939
0.023853249847889
0.023850895464420
0.023848546668887
0.023846304044127
0.023844201117754
0.023842196911573
0.023840179666877
0.023838018998504
0.023835718631744
0.023833407089114
0.023831175640225
0.023829055950046
0.023826971650124
0.023824829608202
0.023822629824281
0.023820474743843
0.023818420246243
0.023816389963031
0.023814324289560
0.023812290281057
0.023810362443328
0.023808497935534
0.023806568235159
0.023804565891623
0.023802619427443
0.023800816386938
0.023799235001206
0.023797916248441
0.023796826601028
0.023795939981937
0.023795196786523
0.023794509470463
0.023793799802661
0.023792978376150
0.023791985586286
0.023790836334229
0.023789580911398
0.023788213729858
0.023786734789610
0.023785235360265
0.023783767595887
0.023782284930348
0.023780709132552
0.023778993636370
0.023777114227414
0.023775070905685
0.023772923275828
0.023770708590746
0.023768387734890
0.023765919730067
0.023763304576278
0.023760542273521
0.023757632821798
0.023754604160786
0.023751545697451
0.023748567327857
0.023745706304908
0.023742903023958
0.023740129545331
0.023737393319607
0.023734668269753
0.023731932044029
0.023729126900434
0.023726206272840
0.023723153397441
0.023719958961010
0.023716628551483
0.023713193833828
0.023709688335657
0.023706074804068
0.023702317848802
0.023698411881924
0.023694375529885
0.023690260946751
0.023686116561294
0.023681977763772
0.023677885532379
0.023673869669437
0.023669930174947
0.023666059598327
0.023662321269512
0.023658763617277
0.023655340075493
0.023651910945773
0.023648368194699
0.023644709959626
0.023640992119908
0.023637278005481
0.023633569478989
0.023629771545529
0.023625828325748
0.023621799424291
0.023617781698704
0.023613838478923
0.023609960451722
0.023606106638908
0.023602208122611
0.023598197847605
0.023594141006470
0.023590220138431
0.023586485534906
0.023582823574543
0.023579126223922
0.023575304076076
0.023571301251650
0.023567106574774
0.023562749847770
0.023558299988508
0.023553762584925
0.023549079895020
0.023544229567051
0.023539252579212
0.023534188047051
0.023529011756182
0.023523721843958
0.023518381640315
0.023512966930866
0.023507429286838
0.023501796647906
0.023496102541685
0.023490346968174
0.023484535515308
0.023478630930185
0.023472577333450
0.023466365411878
0.023460030555725
0.023453578352928
0.023447003215551
0.023440344259143
0.023433703929186
0.023427199572325
0.023420812562108
0.023414382711053
0.023407859727740
0.023401279002428
0.023394599556923
0.023387840017676
0.023381074890494
0.023374322801828
0.023367548361421
0.023360738530755
0.023354006931186
0.023347415030003
0.023340895771980
0.023334385827184
0.023327825590968
0.023321157321334
0.023314423859119
0.023307738825679
0.023301219567657
0.023294938728213
0.023288864642382
0.023282846435905
0.023276764899492
0.023270668461919
0.023264562711120
0.023258369415998
0.023252082988620
0.023245768621564
0.023239480331540
0.023233233019710
0.023226952180266
0.023220529779792
0.023213936015964
0.023207172751427
0.023200273513794
0.023193297907710
0.023186303675175
0.023179372772574
0.023172611370683
0.023166142404079
0.023160114884377
0.023154625669122
0.023149665445089
0.023145101964474
0.023140711709857
0.023136295378208
0.023131823167205
0.023127395659685
0.023122986778617
0.023118466138840
0.023113843053579
0.023109253495932
0.023104723542929
0.023100169375539
0.023095618933439
0.023091185837984
0.023086830973625
0.023082410916686
0.023077949881554
0.023073652759194
0.023069659247994
0.023065974935889
0.023062564432621
0.023059397935867
0.023056475445628
0.023053798824549
0.023051301017404
0.023048890754580
0.023046450689435
0.023043874651194
0.023041157051921
0.023038359358907
0.023035503923893
0.023032546043396
0.023029450327158
0.023026246577501
0.023022957146168
0.023019602522254
0.023016232997179
0.023012896999717
0.023009600117803
0.023006290197372
0.023002913221717
0.022999454289675
0.022995900362730
0.022992227226496
0.022988412529230
0.022984448820353
0.022980334237218
0.022976074367762
0.022971699014306
0.022967305034399
0.022963002324104
0.022958900779486
0.022955058142543
0.022951468825340
0.022948062047362
0.022944705560803
0.022941270843148
0.022937718778849
0.022934064269066
0.022930275648832
0.022926347330213
0.022922374308109
0.022918472066522
0.022914713248610
0.022911071777344
0.022907422855496
0.022903656587005
0.022899765521288
0.022895835340023
0.022891944274306
0.022888069972396
0.022884117439389
0.022880019620061
0.022875769063830
0.022871373221278
0.022866880521178
0.022862385958433
0.022857960313559
0.022853609174490
0.022849300876260
0.022845037281513
0.022840855643153
0.022836752235889
0.022832691669464
0.022828612476587
0.022824438288808
0.022820178419352
0.022815939038992
0.022811776027083
0.022807613015175
0.022803349420428
0.022798944264650
0.022794388234615
0.022789688780904
0.022784858942032
0.022779906168580
0.022774918004870
0.022770095616579
0.022765582427382
0.022761451080441
0.022757725790143
0.022754373028874
0.022751385346055
0.022748786956072
0.022746533155441
0.022744489833713
0.022742442786694
0.022740241140127
0.022737871855497
0.022735346108675
0.022732680663466
0.022729948163033
0.022727282717824
0.022724777460098
0.022722491994500
0.022720478475094
0.022718748077750
0.022717278450727
0.022716021165252
0.022714890539646
0.022713813930750
0.022712783887982
0.022711856290698
0.022711047902703
0.022710343822837
0.022709727287292
0.022709216922522
0.022708853706717
0.022708680480719
0.022708697244525
0.022708846256137
0.022708995267749
0.022709017619491
0.022708911448717
0.022708792239428
0.022708782926202
0.022708982229233
0.022709418088198
0.022709984332323
0.022710552439094
0.022711038589478
0.022711396217346
0.022711610421538
0.022711683064699
0.022711671888828
0.022711699828506
0.022711843252182
0.022712079808116
0.022712295874953
0.022712433710694
0.022712519392371
0.022712538018823
0.022712428122759
0.022712217643857
0.022711943835020
0.022711593657732
0.022711211815476
0.022710904479027
0.022710738703609
0.022710710763931
0.022710783407092
0.022710924968123
0.022711101919413
0.022711252793670
0.022711290046573
0.022711195051670
0.022711046040058
0.022710911929607
0.022710796445608
0.022710632532835
0.022710382938385
0.022710097953677
0.022709820419550
0.022709513083100
0.022709095850587
0.022708544507623
0.022707900032401
0.022707149386406
0.022706270217896
0.022705301642418
0.022704247385263
0.022703059017658
0.022701762616634
0.022700387984514
0.022698884829879
0.022697225213051
0.022695450112224
0.022693615406752
0.022691750898957
0.022689851000905
0.022687897086143
0.022685837000608
0.022683637216687
0.022681269794703
0.022678768262267
0.022676244378090
0.022673705592752
0.022671069949865
0.022668339312077
0.022665608674288
0.022662939503789
0.022660249844193
0.022657442837954
0.022654490545392
0.022651396691799
0.022648192942142
0.022644923999906
0.022641602903605
0.022638184949756
0.022634649649262
0.022631036117673
0.022627374157310
0.022623630240560
0.022619759663939
0.022615799680352
0.022611852735281
0.022608019411564
0.022604387253523
0.022600973024964
0.022597700357437
0.022594457492232
0.022591153159738
0.022587729617953
0.022584214806557
0.022580737248063
0.022577451542020
0.022574398666620
0.022571554407477
0.022568861022592
0.022566236555576
0.022563636302948
0.022561013698578
0.022558301687241
0.022555494681001
0.022552652284503
0.022549800574780
0.022546958178282
0.022544173523784
0.022541461512446
0.022538829594851
0.022536318749189
0.022533934563398
0.022531615570188
0.022529240697622
0.022526765242219
0.022524271160364
0.022521808743477
0.022519359365106
0.022516872733831
0.022514274343848
0.022511556744576
0.022508837282658
0.022506257519126
0.022503847256303
0.022501541301608
0.022499212995172
0.022496767342091
0.022494204342365
0.022491572424769
0.022488895803690
0.022486135363579
0.022483248263597
0.022480227053165
0.022477110847831
0.022474033758044
0.022471196949482
0.022468753159046
0.022466680034995
0.022464834153652
0.022463075816631
0.022461378946900
0.022459773346782
0.022458290681243
0.022456958889961
0.022455735132098
0.022454518824816
0.022453218698502
0.022451754659414
0.022450095042586
0.022448269650340
0.022446339949965
0.022444402799010
0.022442582994699
0.022441029548645
0.022439811378717
0.022438893094659
0.022438179701567
0.022437522187829
0.022436810657382
0.022436071187258
0.022435361519456
0.022434666752815
0.022433942183852
0.022433148697019
0.022432247176766
0.022431202232838
0.022430012002587
0.022428741678596
0.022427445277572
0.022426109761000
0.022424694150686
0.022423164919019
0.022421581670642
0.022420108318329
0.022418905049562
0.022418022155762
0.022417375817895
0.022416824474931
0.022416241466999
0.022415535524487
0.022414723411202
0.022413881495595
0.022413047030568
0.022412220016122
0.022411400452256
0.022410621866584
0.022409942001104
0.022409383207560
0.022408930584788
0.022408604621887
0.022408481687307
0.022408662363887
0.022409239783883
0.022410325706005
0.022411985322833
0.022414123639464
0.022416582331061
0.022419311106205
0.022422360256314
0.022425800561905
0.022429697215557
0.022434070706367
0.022438881918788
0.022444052621722
0.022449517622590
0.022455176338553
0.022460857406259
0.022466400638223
0.022471768781543
0.022476984187961
0.022482112050056
0.022487243637443
0.022492455318570
0.022497823461890
0.022503379732370
0.022509092465043
0.022514833137393
0.022520555183291
0.022526495158672
0.022532917559147
0.022539881989360
0.022547187283635
0.022554576396942
0.022562103345990
0.022569993510842
0.022578295320272
0.022586831822991
0.022595366463065
0.022603848949075
0.022612426429987
0.022621190175414
0.022630071267486
0.022638935595751
0.022647693753242
0.022656325250864
0.022664910182357
0.022673608735204
0.022682538256049
0.022691739723086
0.022701280191541
0.022711189463735
0.022721394896507
0.022731764242053
0.022742148488760
0.022752471268177
0.022762689739466
0.022772740572691
0.022782659158111
0.022792557254434
0.022802436724305
0.022812224924564
0.022821962833405
0.022831812500954
0.022841904312372
0.022852299734950
0.022862954065204
0.022873761132360
0.022884687408805
0.022895760834217
0.022907009348273
0.022918486967683
0.022930238395929
0.022942211478949
0.022954260930419
0.022966252639890
0.022978095337749
0.022989740595222
0.023001221939921
0.023012541234493
0.023023661226034
0.023034622892737
0.023045530542731
0.023056445643306
0.023067397996783
0.023078378289938
0.023089349269867
0.023100301623344
0.023111231625080
0.023122100159526
0.023132842034101
0.023143367841840
0.023153644055128
0.023163694888353
0.023173576220870
0.023183373734355
0.023193147033453
0.023202857002616
0.023212416097522
0.023221801966429
0.023231033235788
0.023240122944117
0.023249084129930
0.023257924243808
0.023266652598977
0.023275278508663
0.023283775895834
0.023292120546103
0.023300386965275
0.023308672010899
0.023316998034716
0.023325357586145
0.023333741351962
0.023342136293650
0.023350503295660
0.023358771577477
0.023366937413812
0.023375125601888
0.023383479565382
0.023391969501972
0.023400414735079
0.023408716544509
0.023416923359036
0.023425029590726
0.023432953283191
0.023440651595592
0.023448113352060
0.023455366492271
0.023462459445000
0.023469442501664
0.023476360365748
0.023483186960220
0.023489870131016
0.023496421054006
0.023502854630351
0.023509165272117
0.023515406996012
0.023521648719907
0.023527851328254
0.023533966392279
0.023540096357465
0.023546271026134
0.023552386090159
0.023558413609862
0.023564429953694
0.023570492863655
0.023576552048326
0.023582566529512
0.023588495329022
0.023594271391630
0.023599855601788
0.023605251684785
0.023610513657331
0.023615714162588
0.023620843887329
0.023625828325748
0.023630658164620
0.023635383695364
0.023640017956495
0.023644547909498
0.023648969829082
0.023653248324990
0.023657351732254
0.023661311715841
0.023665130138397
0.023668741807342
0.023672118782997
0.023675262928009
0.023678205907345
0.023681024089456
0.023683764040470
0.023686375468969
0.023688817396760
0.023691130802035
0.023693349212408
0.023695435374975
0.023697353899479
0.023699099197984
0.023700661957264
0.023702049627900
0.023703351616859
0.023704733699560
0.023706328123808
0.023708162829280
0.023710139095783
0.023712093010545
0.023713912814856
0.023715557530522
0.023717021569610
0.023718306794763
0.023719416931272
0.023720433935523
0.023721544072032
0.023722907528281
0.023724541068077
0.023726398125291
0.023728400468826
0.023730441927910
0.023732461035252
0.023734461516142
0.023736508563161
0.023738659918308
0.023740872740746
0.023743016645312
0.023745002225041
0.023746827617288
0.023748470470309
0.023749919608235
0.023751236498356
0.023752478882670
0.023753650486469
0.023754721507430
0.023755665868521
0.023756457492709
0.023757092654705
0.023757617920637
0.023758143186569
0.023758761584759
0.023759460076690
0.023760132491589
0.023760681971908
0.023761112242937
0.023761490359902
0.023761846125126
0.023762173950672
0.023762466385961
0.023762686178088
0.023762803524733
0.023762879893184
0.023763023316860
0.023763259872794
0.023763522505760
0.023763746023178
0.023763898760080
0.023763988167048
0.023764079436660
0.023764234036207
0.023764410987496
0.023764496669173
0.023764422163367
0.023764178156853
0.023763801902533
0.023763371631503
0.023762982338667
0.023762688040733
0.023762438446283
0.023762162774801
0.023761821910739
0.023761363700032
0.023760775104165
0.023760108277202
0.023759433999658
0.023758819326758
0.023758294060826
0.023757785558701
0.023757170885801
0.023756368085742
0.023755390197039
0.023754341527820
0.023753352463245
0.023752542212605
0.023751953616738
0.023751560598612
0.023751404136419
0.023751545697451
0.023751981556416
0.023752674460411
0.023753585293889
0.023754647001624
0.023755736649036
0.023756718263030
0.023757552728057
0.023758308961987
0.023759100586176
0.023759998381138
0.023761004209518
0.023762116208673
0.023763332515955
0.023764587938786
0.023765787482262
0.023766860365868
0.023767810314894
0.023768739774823
0.023769762367010
0.023770982399583
0.023772494867444
0.023774351924658
0.023776503279805
0.023778809234500
0.023781139403582
0.023783436045051
0.023785741999745
0.023788187652826
0.023790860548615
0.023793745785952
0.023796791210771
0.023799924179912
0.023803006857634
0.023805942386389
0.023808794096112
0.023811707273126
0.023814700543880
0.023817719891667
0.023820772767067
0.023823859170079
0.023826912045479
0.023829840123653
0.023832602426410
0.023835234344006
0.023837804794312
0.023840308189392
0.023842675611377
0.023844858631492
0.023846840485930
0.023848611861467
0.023850191384554
0.023851605132222
0.023852851241827
0.023853978142142
0.023855056613684
0.023856092244387
0.023857025429606
0.023857774212956
0.023858325555921
0.023858724161983
0.023858981207013
0.023859145119786
0.023859336972237
0.023859580978751
0.023859782144427
0.023859890177846
0.023859964683652
0.023860037326813
0.023860059678555
0.023860061541200
0.023860201239586
0.023860616609454
0.023861365392804
0.023862410336733
0.023863585665822
0.023864688351750
0.023865602910519
0.023866305127740
0.023866791278124
0.023867087438703
0.023867223411798
0.023867171257734
0.023866897448897
0.023866465315223
0.023866023868322
0.023865705356002
0.023865602910519
0.023865828290582
0.023866482079029
0.023867622017860
0.023869330063462
0.023871615529060
0.023874355480075
0.023877372965217
0.023880466818810
0.023883610963821
0.023887032642961
0.023890964686871
0.023895518854260
0.023900667205453
0.023906197398901
0.023911813274026
0.023917306214571
0.023922605440021
0.023927733302116
0.023932736366987
0.023937655612826
0.023942498490214
0.023947240784764
0.023951899260283
0.023956529796124
0.023961158469319
0.023965774103999
0.023970462381840
0.023975420743227
0.023980835452676
0.023986775428057
0.023993203416467
0.024000024423003
0.024007115513086
0.024014392867684
0.024021815508604
0.024029335007071
0.024036914110184
0.024044513702393
0.024052096530795
0.024059694260359
0.024067457765341
0.024075523018837
0.024083886295557
0.024092417210340
0.024100933223963
0.024109326303005
0.024117557331920
0.024125657975674
0.024133749306202
0.024141924455762
0.024150269106030
0.024158863350749
0.024167709052563
0.024176778271794
0.024186044931412
0.024195477366447
0.024205053225160
0.024214742705226
0.024224523454905
0.024234339594841
0.024244107306004
0.024253780022264
0.024263380095363
0.024272987619042
0.024282677099109
0.024292480200529
0.024302428588271
0.024312483146787
0.024322513490915
0.024332424625754
0.024342272430658
0.024352159351110
0.024362063035369
0.024371881037951
0.024381542578340
0.024391055107117
0.024400409311056
0.024409558624029
0.024418504908681
0.024427218362689
0.024435734376311
0.024444136768579
0.024452395737171
0.024460472166538
0.024468375369906
0.024476068094373
0.024483520537615
0.024490732699633
0.024497736245394
0.024504657834768
0.024511670693755
0.024518871679902
0.024526190012693
0.024533433839679
0.024540456011891
0.024547252804041
0.024553880095482
0.024560341611505
0.024566594511271
0.024572648108006
0.024578567594290
0.024584408849478
0.024590192362666
0.024595873430371
0.024601388722658
0.024606714025140
0.024611881002784
0.024616993963718
0.024622203782201
0.024627637118101
0.024633342400193
0.024639297276735
0.024645451456308
0.024651722982526
0.024657975882292
0.024664083495736
0.024670064449310
0.024676077067852
0.024682169780135
0.024688195437193
0.024694027379155
0.024699665606022
0.024705242365599
0.024710906669497
0.024716667830944
0.024722408503294
0.024728035554290
0.024733545258641
0.024738907814026
0.024744052439928
0.024748979136348
0.024753753095865
0.024758402258158
0.024762924760580
0.024767287075520
0.024771478027105
0.024775572121143
0.024779655039310
0.024783743545413
0.024787817150354
0.024791890755296
0.024796007201076
0.024800205603242
0.024804517626762
0.024808911606669
0.024813292548060
0.024817604571581
0.024821793660522
0.024825783446431
0.024829564616084
0.024833189323545
0.024836678057909
0.024840012192726
0.024843178689480
0.024846192449331
0.024849111214280
0.024851938709617
0.024854686111212
0.024857502430677
0.024860573932528
0.024863909929991
0.024867329746485
0.024870693683624
0.024873988702893
0.024877179414034
0.024880208075047
0.024883024394512
0.024885630235076
0.024888092651963
0.024890443310142
0.024892680346966
0.024894835427403
0.024897029623389
0.024899436160922
0.024902144446969
0.024905083701015
0.024908067658544
0.024911008775234
0.024913899600506
0.024916673079133
0.024919245392084
0.024921596050262
0.024923726916313
0.024925658479333
0.024927424266934
0.024929026141763
0.024930445477366
0.024931669235229
0.024932699277997
0.024933533743024
0.024934172630310
0.024934615939856
0.024934861809015
0.024934973567724
0.024935072287917
0.024935200810432
0.024935338646173
0.024935463443398
0.024935554713011
0.024935564026237
0.024935409426689
0.024935116991401
0.024934798479080
0.024934530258179
0.024934342131019
0.024934204295278
0.024933990091085
0.024933645501733
0.024933256208897
0.024932872503996
0.024932447820902
0.024931902065873
0.024931203573942
0.024930397048593
0.024929527193308
0.024928670376539
0.024927828460932
0.024926910176873
0.024925861507654
0.024924661964178
0.024923359975219
0.024922003969550
0.024920592084527
0.024919180199504
0.024917848408222
0.024916609749198
0.024915473535657
0.024914445355535
0.024913469329476
0.024912457913160
0.024911334738135
0.024910084903240
0.024908788502216
0.024907488375902
0.024906132370234
0.024904675781727
0.024903101846576
0.024901401251554
0.024899592623115
0.024897728115320
0.024895850569010
0.024894000962377
0.024892246350646
0.024890707805753
0.024889497086406
0.024888619780540
0.024887982755899
0.024887498468161
0.024887120351195
0.024886801838875
0.024886498227715
0.024886174127460
0.024885786697268
0.024885337799788
0.024884883314371
0.024884479120374
0.024884108453989
0.024883758276701
0.024883443489671
0.024883147329092
0.024882854893804
0.024882644414902
0.024882648140192
0.024882894009352
0.024883307516575
0.024883819743991
0.024884309619665
0.024884628131986
0.024884743615985
0.024884689599276
0.024884492158890
0.024884143844247
0.024883642792702
0.024883050471544
0.024882448837161
0.024881983175874
0.024881841614842
0.024882132187486
0.024882858619094
0.024884019047022
0.024885641410947
0.024887686595321
0.024890022352338
0.024892523884773
0.024895107373595
0.024897728115320
0.024900406599045
0.024903193116188
0.024906126782298
0.024909187108278
0.024912230670452
0.024915127083659
0.024917906150222
0.024920644238591
0.024923317134380
0.024925878271461
0.024928385391831
0.024930890649557
0.024933317676187
0.024935580790043
0.024937734007835
0.024939902126789
0.024942120537162
0.024944301694632
0.024946352466941
0.024948280304670
0.024950115010142
0.024951821193099
0.024953333660960
0.024954658001661
0.024955922737718
0.024957278743386
0.024958765134215
0.024960383772850
0.024962171912193
0.024964096024632
0.024966007098556
0.024967756122351
0.024969283491373
0.024970643222332
0.024971999228001
0.024973504245281
0.024975188076496
0.024977009743452
0.024978928267956
0.024980941787362
0.024983042851090
0.024985196068883
0.024987362325191
0.024989446625113
0.024991331622005
0.024992980062962
0.024994403123856
0.024995643645525
0.024996772408485
0.024997822940350
0.024998761713505
0.024999536573887
0.025000140070915
0.025000574067235
0.025000821799040
0.025000900030136
0.025000886991620
0.025000885128975
0.025000985711813
0.025001239031553
0.025001632049680
0.025002080947161
0.025002513080835
0.025002889335155
0.025003178045154
0.025003409013152
0.025003705173731
0.025004206225276
0.025004977360368
0.025005951523781
0.025007000193000
0.025008006021380
0.025008860975504
0.025009535253048
0.025010049343109
0.025010390207171
0.025010578334332
0.025010660290718
0.025010628625751
0.025010440498590
0.025010064244270
0.025009494274855
0.025008764117956
0.025007929652929
0.025007108226418
0.025006406009197
0.025005850940943
0.025005439296365
0.025005137547851
0.025004833936691
0.025004426017404
0.025003941729665
0.025003498420119
0.025003142654896
0.025002755224705
0.025002278387547
0.025001781061292
0.025001281872392
0.025000693276525
0.024999987334013
0.024999301880598
0.024998808279634
0.024998536333442
0.024998320266604
0.024998007342219
0.024997593834996
0.024997070431709
0.024996440857649
0.024995854124427
0.024995410814881
0.024995047599077
0.024994637817144
0.024994099512696
0.024993419647217
0.024992587044835
0.024991560727358
0.024990329518914
0.024988919496536
0.024987353011966
0.024985652416945
0.024983800947666
0.024981789290905
0.024979665875435
0.024977479130030
0.024975206702948
0.024972856044769
0.024970572441816
0.024968562647700
0.024966947734356
0.024965677410364
0.024964578449726
0.024963473901153
0.024962268769741
0.024960981681943
0.024959729984403
0.024958582594991
0.024957479909062
0.024956312030554
0.024955004453659
0.024953516200185
0.024951856583357
0.024950141087174
0.024948569014668
0.024947291240096
0.024946380406618
0.024945871904492
0.024945827201009
0.024946294724941
0.024947259575129
0.024948667734861
0.024950411170721
0.024952318519354
0.024954270571470
0.024956149980426
0.024957856163383
0.024959357455373
0.024960651993752
0.024961745366454
0.024962646886706
0.024963377043605
0.024963926523924
0.024964321404696
0.024964619427919
0.024964813143015
0.024964831769466
0.024964641779661
0.024964276701212
0.024963827803731
0.024963378906250
0.024962972849607
0.024962682276964
0.024962538853288
0.024962443858385
0.024962250143290
0.024961896240711
0.024961417540908
0.024960840120912
0.024960156530142
0.024959366768599
0.024958508089185
0.024957632645965
0.024956781417131
0.024956025183201
0.024955485016108
0.024955336004496
0.024955701082945
0.024956539273262
0.024957643821836
0.024958798661828
0.024959867820144
0.024960786104202
0.024961533024907
0.024962099269032
0.024962529540062
0.024962892755866
0.024963151663542
0.024963246658444
0.024963181465864
0.024962998926640
0.024962782859802
0.024962626397610
0.024962490424514
0.024962278082967
0.024961994960904
0.024961642920971
0.024961153045297
0.024960508570075
0.024959744885564
0.024958856403828
0.024957802146673
0.024956578388810
0.024955213069916
0.024953741580248
0.024952169507742
0.024950468912721
0.024948611855507
0.024946596473455
0.024944448843598
0.024942262098193
0.024940172210336
0.024938287213445
0.024936677888036
0.024935366585851
0.024934317916632
0.024933459237218
0.024932695552707
0.024931905791163
0.024931007996202
0.024929994717240
0.024928888306022
0.024927664548159
0.024926284328103
0.024924749508500
0.024923088029027
0.024921290576458
0.024919325485826
0.024917187169194
0.024914858862758
0.024912340566516
0.024909656494856
0.024906806647778
0.024903759360313
0.024900514632463
0.024897128343582
0.024893689900637
0.024890279397368
0.024886939674616
0.024883674457669
0.024880552664399
0.024877725169063
0.024875365197659
0.024873621761799
0.024872634559870
0.024872398003936
0.024872710928321
0.024873360991478
0.024874150753021
0.024874867871404
0.024875411763787
0.024875814095140
0.024876134470105
0.024876428768039
0.024876682087779
0.024876821786165
0.024876806885004
0.024876667186618
0.024876521900296
0.024876512587070
0.024876669049263
0.024876955896616
0.024877339601517
0.024877853691578
0.024878649041057
0.024879831820726
0.024881338700652
0.024883016943932
0.024884659796953
0.024886112660170
0.024887332692742
0.024888325482607
0.024889133870602
0.024889832362533
0.024890452623367
0.024890994653106
0.024891428649426
0.024891700595617
0.024891868233681
0.024892082437873
0.024892464280128
0.024893030524254
0.024893663823605
0.024894228205085
0.024894664064050
0.024894941598177
0.024895055219531
0.024895017966628
0.024894881993532
0.024894746020436
0.024894701316953
0.024894738569856
0.024894779548049
0.024894786998630
0.024894818663597
0.024894993752241
0.024895381182432
0.024895984679461
0.024896677583456
0.024897305294871
0.024897839874029
0.024898258969188
0.024898482486606
0.024898473173380
0.024898234754801
0.024897774681449
0.024897098541260
0.024896245449781
0.024895278736949
0.024894228205085
0.024893086403608
0.024891814216971
0.024890379980206
0.024888811632991
0.024887168779969
0.024885537102818
0.024883994832635
0.024882514029741
0.024881040677428
0.024879585951567
0.024878188967705
0.024876886978745
0.024875681847334
0.024874508380890
0.024873279035091
0.024871982634068
0.024870710447431
0.024869568645954
0.024868659675121
0.024868037551641
0.024867689236999
0.024867571890354
0.024867674335837
0.024868076667190
0.024868914857507
0.024870250374079
0.024872004985809
0.024873983114958
0.024875940755010
0.024877715855837
0.024879287928343
0.024880699813366
0.024881958961487
0.024883082136512
0.024884130805731
0.024885173887014
0.024886298924685
0.024887654930353
0.024889400228858
0.024891588836908
0.024894136935472
0.024896966293454
0.024900007992983
0.024903161451221
0.024906396865845
0.024909749627113
0.024913219735026
0.024916805326939
0.024920502677560
0.024924274533987
0.024928120896220
0.024932069703937
0.024936113506556
0.024940179660916
0.024944175034761
0.024948038160801
0.024951780214906
0.024955410510302
0.024958902969956
0.024962300434709
0.024965701624751
0.024969100952148
0.024972418323159
0.024975636973977
0.024978799745440
0.024981942027807
0.024985024705529
0.024988014250994
0.024990878999233
0.024993572384119
0.024996085092425
0.024998424574733
0.025000626221299
0.025002757087350
0.025004848837852
0.025006860494614
0.025008760392666
0.025010580196977
0.025012312456965
0.025013893842697
0.025015324354172
0.025016622617841
0.025017794221640
0.025018971413374
0.025020314380527
0.025021830573678
0.025023393332958
0.025024883449078
0.025026284158230
0.025027606636286
0.025028802454472
0.025029854848981
0.025030814111233
0.025031726807356
0.025032602250576
0.025033397600055
0.025034129619598
0.025034865364432
0.025035591796041
0.025036239996552
0.025036776438355
0.025037257000804
0.025037815794349
0.025038547813892
0.025039501488209
0.025040719658136
0.025042118504643
0.025043552741408
0.025044951587915
0.025046251714230
0.025047361850739
0.025048263370991
0.025049062445760
0.025049950927496
0.025051072239876
0.025052430108190
0.025053959339857
0.025055538862944
0.025057049468160
0.025058533996344
0.025060100480914
0.025061776861548
0.025063522160053
0.025065235793591
0.025066807866096
0.025068204849958
0.025069490075111
0.025070695206523
0.025071768090129
0.025072747841477
0.025073803961277
0.025075022131205
0.025076322257519
0.025077600032091
0.025078820064664
0.025079984217882
0.025081088766456
0.025082133710384
0.025083115324378
0.025084001943469
0.025084730237722
0.025085274130106
0.025085635483265
0.025085823610425
0.025085855275393
0.025085747241974
0.025085503235459
0.025085126981139
0.025084618479013
0.025084042921662
0.025083523243666
0.025083104148507
0.025082733482122
0.025082329288125
0.025081913918257
0.025081660598516
0.025081790983677
0.025082470849156
0.025083757936954
0.025085605680943
0.025087965652347
0.025090858340263
0.025094328448176
0.025098381564021
0.025102928280830
0.025107752531767
0.025112630799413
0.025117415934801
0.025122035294771
0.025126505643129
0.025130860507488
0.025135081261396
0.025139125064015
0.025143004953861
0.025146836414933
0.025150751695037
0.025154836475849
0.025159107521176
0.025163548067212
0.025168107822537
0.025172675028443
0.025177150964737
0.025181533768773
0.025185922160745
0.025190399959683
0.025194948539138
0.025199458003044
0.025203827768564
0.025208022445440
0.025212036445737
0.025215841829777
0.025219449773431
0.025222940370440
0.025226421654224
0.025229953229427
0.025233564898372
0.025237243622541
0.025240888819098
0.025244383141398
0.025247707962990
0.025250917300582
0.025254191830754
0.025257816538215
0.025262041017413
0.025266895070672
0.025272212922573
0.025277752429247
0.025283282622695
0.025288691744208
0.025293968617916
0.025299137458205
0.025304187089205
0.025309070944786
0.025313774123788
0.025318285450339
0.025322575122118
0.025326672941446
0.025330670177937
0.025334676727653
0.025338891893625
0.025343488901854
0.025348506867886
0.025353876873851
0.025359440594912
0.025364993140101
0.025370404124260
0.025375682860613
0.025380933657289
0.025386275723577
0.025391792878509
0.025397460907698
0.025403194129467
0.025408912450075
0.025414543226361
0.025420084595680
0.025425592437387
0.025431117042899
0.025436772033572
0.025442685931921
0.025448879227042
0.025455247610807
0.025461595505476
0.025467775762081
0.025473779067397
0.025479663163424
0.025485444813967
0.025491140782833
0.025496827438474
0.025502573698759
0.025508349761367
0.025514027103782
0.025519493967295
0.025524707511067
0.025529691949487
0.025534532964230
0.025539340451360
0.025544183328748
0.025549056008458
0.025553923100233
0.025558756664395
