1.0
0.999684189283
0.998736956606
0.997158900261
0.994951016981
0.992114701314
0.988651744738
0.984564334529
0.979855052384
0.974526872787
0.968583161129
0.962027671586
0.954864544747
0.947098304995
0.938733857654
0.929776485888
0.920231847366
0.910105970685
0.899405251566
0.888136448814
0.876306680044
0.863923417193
0.850994481795
0.837528040042
0.823532597628
0.809016994375
0.793990398648
0.778462301567
0.762442511011
0.745941145424
0.728968627421
0.711535677209
0.693653305813
0.675332808121
0.656585755753
0.637423989749
0.61785961309
0.597904983058
0.577572703422
0.556875616488
0.535826794979
0.514439533782
0.492727341548
0.470703932165
0.44838321609
0.425779291565
0.402906435714
0.379779095522
0.356411878713
0.332819544523
0.309016994375
0.28501926247
0.26084150629
0.236498997024
0.212007109922
0.187381314586
0.162637165195
0.137790290685
0.112856384873
0.0878511965507
0.0627905195293
0.0376901826699
0.0125660398834
-0.0125660398834
-0.0376901826699
-0.0627905195293
-0.0878511965507
-0.112856384873
-0.137790290685
-0.162637165195
-0.187381314586
-0.212007109922
-0.236498997024
-0.26084150629
-0.28501926247
-0.309016994375
-0.332819544523
-0.356411878713
-0.379779095522
-0.402906435714
-0.425779291565
-0.44838321609
-0.470703932165
-0.492727341548
-0.514439533782
-0.535826794979
-0.556875616488
-0.577572703422
-0.597904983058
-0.61785961309
-0.637423989749
-0.656585755753
-0.675332808121
-0.693653305813
-0.711535677209
-0.728968627421
-0.745941145424
-0.762442511011
-0.778462301567
-0.793990398648
-0.809016994375
-0.823532597628
-0.837528040042
-0.850994481795
-0.863923417193
-0.876306680044
-0.888136448814
-0.899405251566
-0.910105970685
-0.920231847366
-0.929776485888
-0.938733857654
-0.947098304995
-0.954864544747
-0.962027671586
-0.968583161129
-0.974526872787
-0.979855052384
-0.984564334529
-0.988651744738
-0.992114701314
-0.994951016981
-0.997158900261
-0.998736956606
-0.999684189283
-1.0
-0.999684189283
-0.998736956606
-0.997158900261
-0.994951016981
-0.992114701314
-0.988651744738
-0.984564334529
-0.979855052384
-0.974526872787
-0.968583161129
-0.962027671586
-0.954864544747
-0.947098304995
-0.938733857654
-0.929776485888
-0.920231847366
-0.910105970685
-0.899405251566
-0.888136448814
-0.876306680044
-0.863923417193
-0.850994481795
-0.837528040042
-0.823532597628
-0.809016994375
-0.793990398648
-0.778462301567
-0.762442511011
-0.745941145424
-0.728968627421
-0.711535677209
-0.693653305813
-0.675332808121
-0.656585755753
-0.637423989749
-0.61785961309
-0.597904983058
-0.577572703422
-0.556875616488
-0.535826794979
-0.514439533782
-0.492727341548
-0.470703932165
-0.44838321609
-0.425779291565
-0.402906435714
-0.379779095522
-0.356411878713
-0.332819544523
-0.309016994375
-0.28501926247
-0.26084150629
-0.236498997024
-0.212007109922
-0.187381314586
-0.162637165195
-0.137790290685
-0.112856384873
-0.0878511965507
-0.0627905195293
-0.0376901826699
-0.0125660398834
0.0125660398834
0.0376901826699
0.0627905195293
0.0878511965507
0.112856384873
0.137790290685
0.162637165195
0.187381314586
0.212007109922
0.236498997024
0.26084150629
0.28501926247
0.309016994375
0.332819544523
0.356411878713
0.379779095522
0.402906435714
0.425779291565
0.44838321609
0.470703932165
0.492727341548
0.514439533782
0.535826794979
0.556875616488
0.577572703422
0.597904983058
0.61785961309
0.637423989749
0.656585755753
0.675332808121
0.693653305813
0.711535677209
0.728968627421
0.745941145424
0.762442511011
0.778462301567
0.793990398648
0.809016994375
0.823532597628
0.837528040042
0.850994481795
0.863923417193
0.876306680044
0.888136448814
0.899405251566
0.910105970685
0.920231847366
0.929776485888
0.938733857654
0.947098304995
0.954864544747
0.962027671586
0.968583161129
0.974526872787
0.979855052384
0.984564334529
0.988651744738
0.992114701314
0.994951016981
0.997158900261
0.998736956606
0.999684189283
1.0
0.999684189283
0.998736956606
0.997158900261
0.994951016981
0.992114701314
0.988651744738
0.984564334529
0.979855052384
0.974526872787
0.968583161129
0.962027671586
0.954864544747
0.947098304995
0.938733857654
0.929776485888
0.920231847366
0.910105970685
0.899405251566
0.888136448814
0.876306680044
0.863923417193
0.850994481795
0.837528040042
0.823532597628
0.809016994375
0.793990398648
0.778462301567
0.762442511011
0.745941145424
0.728968627421
0.711535677209
0.693653305813
0.675332808121
0.656585755753
0.637423989749
0.61785961309
0.597904983058
0.577572703422
0.556875616488
0.535826794979
0.514439533782
0.492727341548
0.470703932165
0.44838321609
0.425779291565
0.402906435714
0.379779095522
0.356411878713
0.332819544523
0.309016994375
0.28501926247
0.26084150629
0.236498997024
0.212007109922
0.187381314586
0.162637165195
0.137790290685
0.112856384873
0.0878511965507
0.0627905195293
0.0376901826699
0.0125660398834
-0.0125660398834
-0.0376901826699
-0.0627905195293
-0.0878511965507
-0.112856384873
-0.137790290685
-0.162637165195
-0.187381314586
-0.212007109922
-0.236498997024
-0.26084150629
-0.28501926247
-0.309016994375
-0.332819544523
-0.356411878713
-0.379779095522
-0.402906435714
-0.425779291565
-0.44838321609
-0.470703932165
-0.492727341548
-0.514439533782
-0.535826794979
-0.556875616488
-0.577572703422
-0.597904983058
-0.61785961309
-0.637423989749
-0.656585755753
-0.675332808121
-0.693653305813
-0.711535677209
-0.728968627421
-0.745941145424
-0.762442511011
-0.778462301567
-0.793990398648
-0.809016994375
-0.823532597628
-0.837528040042
-0.850994481795
-0.863923417193
-0.876306680044
-0.888136448814
-0.899405251566
-0.910105970685
-0.920231847366
-0.929776485888
-0.938733857654
-0.947098304995
-0.954864544747
-0.962027671586
-0.968583161129
-0.974526872787
-0.979855052384
-0.984564334529
-0.988651744738
-0.992114701314
-0.994951016981
-0.997158900261
-0.998736956606
-0.999684189283
-1.0
-0.999684189283
-0.998736956606
-0.997158900261
-0.994951016981
-0.992114701314
-0.988651744738
-0.984564334529
-0.979855052384
-0.974526872787
-0.968583161129
-0.962027671586
-0.954864544747
-0.947098304995
-0.938733857654
-0.929776485888
-0.920231847366
-0.910105970685
-0.899405251566
-0.888136448814
-0.876306680044
-0.863923417193
-0.850994481795
-0.837528040042
-0.823532597628
-0.809016994375
-0.793990398648
-0.778462301567
-0.762442511011
-0.745941145424
-0.728968627421
-0.711535677209
-0.693653305813
-0.675332808121
-0.656585755753
-0.637423989749
-0.61785961309
-0.597904983058
-0.577572703422
-0.556875616488
-0.535826794979
-0.514439533782
-0.492727341548
-0.470703932165
-0.44838321609
-0.425779291565
-0.402906435714
-0.379779095522
-0.356411878713
-0.332819544523
-0.309016994375
-0.28501926247
-0.26084150629
-0.236498997024
-0.212007109922
-0.187381314586
-0.162637165195
-0.137790290685
-0.112856384873
-0.0878511965507
-0.0627905195293
-0.0376901826699
-0.0125660398834
0.0125660398834
0.0376901826699
0.0627905195293
0.0878511965507
0.112856384873
0.137790290685
0.162637165195
0.187381314586
0.212007109922
0.236498997024
0.26084150629
0.28501926247
0.309016994375
0.332819544523
0.356411878713
0.379779095522
0.402906435714
0.425779291565
0.44838321609
0.470703932165
0.492727341548
0.514439533782
0.535826794979
0.556875616488
0.577572703422
0.597904983058
0.61785961309
0.637423989749
0.656585755753
0.675332808121
0.693653305813
0.711535677209
0.728968627421
0.745941145424
0.762442511011
0.778462301567
0.793990398648
0.809016994375
0.823532597628
0.837528040042
0.850994481795
0.863923417193
0.876306680044
0.888136448814
0.899405251566
0.910105970685
0.920231847366
0.929776485888
0.938733857654
0.947098304995
0.954864544747
0.962027671586
0.968583161129
0.974526872787
0.979855052384
0.984564334529
0.988651744738
0.992114701314
0.994951016981
0.997158900261
0.998736956606
0.999684189283
1.0
0.999684189283
0.998736956606
0.997158900261
0.994951016981
0.992114701314
0.988651744738
0.984564334529
0.979855052384
0.974526872787
0.968583161129
0.962027671586
0.954864544747
0.947098304995
0.938733857654
0.929776485888
0.920231847366
0.910105970685
0.899405251566
0.888136448814
0.876306680044
0.863923417193
0.850994481795
0.837528040042
0.823532597628
0.809016994375
0.793990398648
0.778462301567
0.762442511011
0.745941145424
0.728968627421
0.711535677209
0.693653305813
0.675332808121
0.656585755753
0.637423989749
0.61785961309
0.597904983058
0.577572703422
0.556875616488
0.535826794979
0.514439533782
0.492727341548
0.470703932165
0.44838321609
0.425779291565
0.402906435714
0.379779095522
0.356411878713
0.332819544523
0.309016994375
0.28501926247
0.26084150629
0.236498997024
0.212007109922
0.187381314586
0.162637165195
0.137790290685
0.112856384873
0.0878511965507
0.0627905195293
0.0376901826699
0.0125660398834
-0.0125660398834
-0.0376901826699
-0.0627905195293
-0.0878511965507
-0.112856384873
-0.137790290685
-0.162637165195
-0.187381314586
-0.212007109922
-0.236498997024
-0.26084150629
-0.28501926247
-0.309016994375
-0.332819544523
-0.356411878713
-0.379779095522
-0.402906435714
-0.425779291565
-0.44838321609
-0.470703932165
-0.492727341548
-0.514439533782
-0.535826794979
-0.556875616488
-0.577572703422
-0.597904983058
-0.61785961309
-0.637423989749
-0.656585755753
-0.675332808121
-0.693653305813
-0.711535677209
-0.728968627421
-0.745941145424
-0.762442511011
-0.778462301567
-0.793990398648
-0.809016994375
-0.823532597628
-0.837528040042
-0.850994481795
-0.863923417193
-0.876306680044
-0.888136448814
-0.899405251566
-0.910105970685
-0.920231847366
-0.929776485888
-0.938733857654
-0.947098304995
-0.954864544747
-0.962027671586
-0.968583161129
-0.974526872787
-0.979855052384
-0.984564334529
-0.988651744738
-0.992114701314
-0.994951016981
-0.997158900261
-0.998736956606
-0.999684189283
-1.0
-0.999684189283
-0.998736956606
-0.997158900261
-0.994951016981
-0.992114701314
-0.988651744738
-0.984564334529
-0.979855052384
-0.974526872787
-0.968583161129
-0.962027671586
-0.954864544747
-0.947098304995
-0.938733857654
-0.929776485888
-0.920231847366
-0.910105970685
-0.899405251566
-0.888136448814
-0.876306680044
-0.863923417193
-0.850994481795
-0.837528040042
-0.823532597628
-0.809016994375
-0.793990398648
-0.778462301567
-0.762442511011
-0.745941145424
-0.728968627421
-0.711535677209
-0.693653305813
-0.675332808121
-0.656585755753
-0.637423989749
-0.61785961309
-0.597904983058
-0.577572703422
-0.556875616488
-0.535826794979
-0.514439533782
-0.492727341548
-0.470703932165
-0.44838321609
-0.425779291565
-0.402906435714
-0.379779095522
-0.356411878713
-0.332819544523
-0.309016994375
-0.28501926247
-0.26084150629
-0.236498997024
-0.212007109922
-0.187381314586
-0.162637165195
-0.137790290685
-0.112856384873
-0.0878511965507
-0.0627905195293
-0.0376901826699
-0.0125660398834
0.0125660398834
0.0376901826699
0.0627905195293
0.0878511965507
0.112856384873
0.137790290685
0.162637165195
0.187381314586
0.212007109922
0.236498997024
0.26084150629
0.28501926247
0.309016994375
0.332819544523
0.356411878713
0.379779095522
0.402906435714
0.425779291565
0.44838321609
0.470703932165
0.492727341548
0.514439533782
0.535826794979
0.556875616488
0.577572703422
0.597904983058
0.61785961309
0.637423989749
0.656585755753
0.675332808121
0.693653305813
0.711535677209
0.728968627421
0.745941145424
0.762442511011
0.778462301567
0.793990398648
0.809016994375
0.823532597628
0.837528040042
0.850994481795
0.863923417193
0.876306680044
0.888136448814
0.899405251566
0.910105970685
0.920231847366
0.929776485888
0.938733857654
0.947098304995
0.954864544747
0.962027671586
0.968583161129
0.974526872787
0.979855052384
0.984564334529
0.988651744738
0.992114701314
0.994951016981
0.997158900261
0.998736956606
0.999684189283
1.0
0.999684189283
0.998736956606
0.997158900261
0.994951016981
0.992114701314
0.988651744738
0.984564334529
0.979855052384
0.974526872787
0.968583161129
0.962027671586
0.954864544747
0.947098304995
0.938733857654
0.929776485888
0.920231847366
0.910105970685
0.899405251566
0.888136448814
0.876306680044
0.863923417193
0.850994481795
0.837528040042
0.823532597628
0.809016994375
0.793990398648
0.778462301567
0.762442511011
0.745941145424
0.728968627421
0.711535677209
0.693653305813
0.675332808121
0.656585755753
0.637423989749
0.61785961309
0.597904983058
0.577572703422
0.556875616488
0.535826794979
0.514439533782
0.492727341548
0.470703932165
0.44838321609
0.425779291565
0.402906435714
0.379779095522
0.356411878713
0.332819544523
0.309016994375
0.28501926247
0.26084150629
0.236498997024
0.212007109922
0.187381314586
0.162637165195
0.137790290685
0.112856384873
0.0878511965507
0.0627905195293
0.0376901826699
0.0125660398834
-0.0125660398834
-0.0376901826699
-0.0627905195293
-0.0878511965507
-0.112856384873
-0.137790290685
-0.162637165195
-0.187381314586
-0.212007109922
-0.236498997024
-0.26084150629
-0.28501926247
-0.309016994375
-0.332819544523
-0.356411878713
-0.379779095522
-0.402906435714
-0.425779291565
-0.44838321609
-0.470703932165
-0.492727341548
-0.514439533782
-0.535826794979
-0.556875616488
-0.577572703422
-0.597904983058
-0.61785961309
-0.637423989749
-0.656585755753
-0.675332808121
-0.693653305813
-0.711535677209
-0.728968627421
-0.745941145424
-0.762442511011
-0.778462301567
-0.793990398648
-0.809016994375
-0.823532597628
-0.837528040042
-0.850994481795
-0.863923417193
-0.876306680044
-0.888136448814
-0.899405251566
-0.910105970685
-0.920231847366
-0.929776485888
-0.938733857654
-0.947098304995
-0.954864544747
-0.962027671586
-0.968583161129
-0.974526872787
-0.979855052384
-0.984564334529
-0.988651744738
-0.992114701314
-0.994951016981
-0.997158900261
-0.998736956606
-0.999684189283
-1.0
-0.999684189283
-0.998736956606
-0.997158900261
-0.994951016981
-0.992114701314
-0.988651744738
-0.984564334529
-0.979855052384
-0.974526872787
-0.968583161129
-0.962027671586
-0.954864544747
-0.947098304995
-0.938733857654
-0.929776485888
-0.920231847366
-0.910105970685
-0.899405251566
-0.888136448814
-0.876306680044
-0.863923417193
-0.850994481795
-0.837528040042
-0.823532597628
-0.809016994375
-0.793990398648
-0.778462301567
-0.762442511011
-0.745941145424
-0.728968627421
-0.711535677209
-0.693653305813
-0.675332808121
-0.656585755753
-0.637423989749
-0.61785961309
-0.597904983058
-0.577572703422
-0.556875616488
-0.535826794979
-0.514439533782
-0.492727341548
-0.470703932165
-0.44838321609
-0.425779291565
-0.402906435714
-0.379779095522
-0.356411878713
-0.332819544523
-0.309016994375
-0.28501926247
-0.26084150629
-0.236498997024
-0.212007109922
-0.187381314586
-0.162637165195
-0.137790290685
-0.112856384873
-0.0878511965507
-0.0627905195293
-0.0376901826699
-0.0125660398834
0.0125660398834
0.0376901826699
0.0627905195293
0.0878511965507
0.112856384873
0.137790290685
0.162637165195
0.187381314586
0.212007109922
0.236498997024
0.26084150629
0.28501926247
0.309016994375
0.332819544523
0.356411878713
0.379779095522
0.402906435714
0.425779291565
0.44838321609
0.470703932165
0.492727341548
0.514439533782
0.535826794979
0.556875616488
0.577572703422
0.597904983058
0.61785961309
0.637423989749
0.656585755753
0.675332808121
0.693653305813
0.711535677209
0.728968627421
0.745941145424
0.762442511011
0.778462301567
0.793990398648
0.809016994375
0.823532597628
0.837528040042
0.850994481795
0.863923417193
0.876306680044
0.888136448814
0.899405251566
0.910105970685
0.920231847366
0.929776485888
0.938733857654
0.947098304995
0.954864544747
0.962027671586
0.968583161129
0.974526872787
0.979855052384
0.984564334529
0.988651744738
0.992114701314
0.994951016981
0.997158900261
0.998736956606
0.999684189283
1.0
0.999684189283
0.998736956606
0.997158900261
0.994951016981
0.992114701314
0.988651744738
0.984564334529
0.979855052384
0.974526872787
0.968583161129
0.962027671586
0.954864544747
0.947098304995
0.938733857654
0.929776485888
0.920231847366
0.910105970685
0.899405251566
0.888136448814
0.876306680044
0.863923417193
0.850994481795
0.837528040042
0.823532597628
0.809016994375
0.793990398648
0.778462301567
0.762442511011
0.745941145424
0.728968627421
0.711535677209
0.693653305813
0.675332808121
0.656585755753
0.637423989749
0.61785961309
0.597904983058
0.577572703422
0.556875616488
0.535826794979
0.514439533782
0.492727341548
0.470703932165
0.44838321609
0.425779291565
0.402906435714
0.379779095522
0.356411878713
0.332819544523
0.309016994375
0.28501926247
0.26084150629
0.236498997024
0.212007109922
0.187381314586
0.162637165195
0.137790290685
0.112856384873
0.0878511965507
0.0627905195293
0.0376901826699
0.0125660398834
-0.0125660398834
-0.0376901826699
-0.0627905195293
-0.0878511965507
-0.112856384873
-0.137790290685
-0.162637165195
-0.187381314586
-0.212007109922
-0.236498997024
-0.26084150629
-0.28501926247
-0.309016994375
-0.332819544523
-0.356411878713
-0.379779095522
-0.402906435714
-0.425779291565
-0.44838321609
-0.470703932165
-0.492727341548
-0.514439533782
-0.535826794979
-0.556875616488
-0.577572703422
-0.597904983058
-0.61785961309
-0.637423989749
-0.656585755753
-0.675332808121
-0.693653305813
-0.711535677209
-0.728968627421
-0.745941145424
-0.762442511011
-0.778462301567
-0.793990398648
-0.809016994375
-0.823532597628
-0.837528040042
-0.850994481795
-0.863923417193
-0.876306680044
-0.888136448814
-0.899405251566
-0.910105970685
-0.920231847366
-0.929776485888
-0.938733857654
-0.947098304995
-0.954864544747
-0.962027671586
-0.968583161129
-0.974526872787
-0.979855052384
-0.984564334529
-0.988651744738
-0.992114701314
-0.994951016981
-0.997158900261
-0.998736956606
-0.999684189283
-1.0
-0.999684189283
-0.998736956606
-0.997158900261
-0.994951016981
-0.992114701314
-0.988651744738
-0.984564334529
-0.979855052384
-0.974526872787
-0.968583161129
-0.962027671586
-0.954864544747
-0.947098304995
-0.938733857654
-0.929776485888
-0.920231847366
-0.910105970685
-0.899405251566
-0.888136448814
-0.876306680044
-0.863923417193
-0.850994481795
-0.837528040042
-0.823532597628
-0.809016994375
-0.793990398648
-0.778462301567
-0.762442511011
-0.745941145424
-0.728968627421
-0.711535677209
-0.693653305813
-0.675332808121
-0.656585755753
-0.637423989749
-0.61785961309
-0.597904983058
-0.577572703422
-0.556875616488
-0.535826794979
-0.514439533782
-0.492727341548
-0.470703932165
-0.44838321609
-0.425779291565
-0.402906435714
-0.379779095522
-0.356411878713
-0.332819544523
-0.309016994375
-0.28501926247
-0.26084150629
-0.236498997024
-0.212007109922
-0.187381314586
-0.162637165195
-0.137790290685
-0.112856384873
-0.0878511965507
-0.0627905195293
-0.0376901826699
-0.0125660398834
0.0125660398834
0.0376901826699
0.0627905195293
0.0878511965507
0.112856384873
0.137790290685
0.162637165195
0.187381314586
0.212007109922
0.236498997024
0.26084150629
0.28501926247
0.309016994375
0.332819544523
0.356411878713
0.379779095522
0.402906435714
0.425779291565
0.44838321609
0.470703932165
0.492727341548
0.514439533782
0.535826794979
0.556875616488
0.577572703422
0.597904983058
0.61785961309
0.637423989749
0.656585755753
0.675332808121
0.693653305813
0.711535677209
0.728968627421
0.745941145424
0.762442511011
0.778462301567
0.793990398648
0.809016994375
0.823532597628
0.837528040042
0.850994481795
0.863923417193
0.876306680044
0.888136448814
0.899405251566
0.910105970685
0.920231847366
0.929776485888
0.938733857654
0.947098304995
0.954864544747
0.962027671586
0.968583161129
0.974526872787
0.979855052384
0.984564334529
0.988651744738
0.992114701314
0.994951016981
0.997158900261
0.998736956606
0.999684189283
1.0
0.999684189283
0.998736956606
0.997158900261
0.994951016981
0.992114701314
0.988651744738
0.984564334529
0.979855052384
0.974526872787
0.968583161129
0.962027671586
0.954864544747
0.947098304995
0.938733857654
0.929776485888
0.920231847366
0.910105970685
0.899405251566
0.888136448814
0.876306680044
0.863923417193
0.850994481795
0.837528040042
0.823532597628
0.809016994375
0.793990398648
0.778462301567
0.762442511011
0.745941145424
0.728968627421
0.711535677209
0.693653305813
0.675332808121
0.656585755753
0.637423989749
0.61785961309
0.597904983058
0.577572703422
0.556875616488
0.535826794979
0.514439533782
0.492727341548
0.470703932165
0.44838321609
0.425779291565
0.402906435714
0.379779095522
0.356411878713
0.332819544523
0.309016994375
0.28501926247
0.26084150629
0.236498997024
0.212007109922
0.187381314586
0.162637165195
0.137790290685
0.112856384873
0.0878511965507
0.0627905195293
0.0376901826699
0.0125660398834
-0.0125660398834
-0.0376901826699
-0.0627905195293
-0.0878511965507
-0.112856384873
-0.137790290685
-0.162637165195
-0.187381314586
-0.212007109922
-0.236498997024
-0.26084150629
-0.28501926247
-0.309016994375
-0.332819544523
-0.356411878713
-0.379779095522
-0.402906435714
-0.425779291565
-0.44838321609
-0.470703932165
-0.492727341548
-0.514439533782
-0.535826794979
-0.556875616488
-0.577572703422
-0.597904983058
-0.61785961309
-0.637423989749
-0.656585755753
-0.675332808121
-0.693653305813
-0.711535677209
-0.728968627421
-0.745941145424
-0.762442511011
-0.778462301567
-0.793990398648
-0.809016994375
-0.823532597628
-0.837528040042
-0.850994481795
-0.863923417193
-0.876306680044
-0.888136448814
-0.899405251566
-0.910105970685
-0.920231847366
-0.929776485888
-0.938733857654
-0.947098304995
-0.954864544747
-0.962027671586
-0.968583161129
-0.974526872787
-0.979855052384
-0.984564334529
-0.988651744738
-0.992114701314
-0.994951016981
-0.997158900261
-0.998736956606
-0.999684189283
-1.0
-0.999684189283
-0.998736956606
-0.997158900261
-0.994951016981
-0.992114701314
-0.988651744738
-0.984564334529
-0.979855052384
-0.974526872787
-0.968583161129
-0.962027671586
-0.954864544747
-0.947098304995
-0.938733857654
-0.929776485888
-0.920231847366
-0.910105970685
-0.899405251566
-0.888136448814
-0.876306680044
-0.863923417193
-0.850994481795
-0.837528040042
-0.823532597628
-0.809016994375
-0.793990398648
-0.778462301567
-0.762442511011
-0.745941145424
-0.728968627421
-0.711535677209
-0.693653305813
-0.675332808121
-0.656585755753
-0.637423989749
-0.61785961309
-0.597904983058
-0.577572703422
-0.556875616488
-0.535826794979
-0.514439533782
-0.492727341548
-0.470703932165
-0.44838321609
-0.425779291565
-0.402906435714
-0.379779095522
-0.356411878713
-0.332819544523
-0.309016994375
-0.28501926247
-0.26084150629
-0.236498997024
-0.212007109922
-0.187381314586
-0.162637165195
-0.137790290685
-0.112856384873
-0.0878511965507
-0.0627905195293
-0.0376901826699
-0.0125660398834
0.0125660398834
0.0376901826699
0.0627905195293
0.0878511965507
0.112856384873
0.137790290685
0.162637165195
0.187381314586
0.212007109922
0.236498997024
0.26084150629
0.28501926247
0.309016994375
0.332819544523
0.356411878713
0.379779095522
0.402906435714
0.425779291565
0.44838321609
0.470703932165
0.492727341548
0.514439533782
0.535826794979
0.556875616488
0.577572703422
0.597904983058
0.61785961309
0.637423989749
0.656585755753
0.675332808121
0.693653305813
0.711535677209
0.728968627421
0.745941145424
0.762442511011
0.778462301567
0.793990398648
0.809016994375
0.823532597628
0.837528040042
0.850994481795
0.863923417193
0.876306680044
0.888136448814
0.899405251566
0.910105970685
0.920231847366
0.929776485888
0.938733857654
0.947098304995
0.954864544747
0.962027671586
0.968583161129
0.974526872787
0.979855052384
0.984564334529
0.988651744738
0.992114701314
0.994951016981
0.997158900261
0.998736956606
0.999684189283
1.0
0.999684189283
0.998736956606
0.997158900261
0.994951016981
0.992114701314
0.988651744738
0.984564334529
0.979855052384
0.974526872787
0.968583161129
0.962027671586
0.954864544747
0.947098304995
0.938733857654
0.929776485888
0.920231847366
0.910105970685
0.899405251566
0.888136448814
0.876306680044
0.863923417193
0.850994481795
0.837528040042
0.823532597628
0.809016994375
0.793990398648
0.778462301567
0.762442511011
0.745941145424
0.728968627421
0.711535677209
0.693653305813
0.675332808121
0.656585755753
0.637423989749
0.61785961309
0.597904983058
0.577572703422
0.556875616488
0.535826794979
0.514439533782
0.492727341548
0.470703932165
0.44838321609
0.425779291565
0.402906435714
0.379779095522
0.356411878713
0.332819544523
0.309016994375
0.28501926247
0.26084150629
0.236498997024
0.212007109922
0.187381314586
0.162637165195
0.137790290685
0.112856384873
0.0878511965507
0.0627905195293
0.0376901826699
0.0125660398834
-0.0125660398834
-0.0376901826699
-0.0627905195293
-0.0878511965507
-0.112856384873
-0.137790290685
-0.162637165195
-0.187381314586
-0.212007109922
-0.236498997024
-0.26084150629
-0.28501926247
-0.309016994375
-0.332819544523
-0.356411878713
-0.379779095522
-0.402906435714
-0.425779291565
-0.44838321609
-0.470703932165
-0.492727341548
-0.514439533782
-0.535826794979
-0.556875616488
-0.577572703422
-0.597904983058
-0.61785961309
-0.637423989749
-0.656585755753
-0.675332808121
-0.693653305813
-0.711535677209
-0.728968627421
-0.745941145424
-0.762442511011
-0.778462301567
-0.793990398648
-0.809016994375
-0.823532597628
-0.837528040042
-0.850994481795
-0.863923417193
-0.876306680044
-0.888136448814
-0.899405251566
-0.910105970685
-0.920231847366
-0.929776485888
-0.938733857654
-0.947098304995
-0.954864544747
-0.962027671586
-0.968583161129
-0.974526872787
-0.979855052384
-0.984564334529
-0.988651744738
-0.992114701314
-0.994951016981
-0.997158900261
-0.998736956606
-0.999684189283
-1.0
-0.999684189283
-0.998736956606
-0.997158900261
-0.994951016981
-0.992114701314
-0.988651744738
-0.984564334529
-0.979855052384
-0.974526872787
-0.968583161129
-0.962027671586
-0.954864544747
-0.947098304995
-0.938733857654
-0.929776485888
-0.920231847366
-0.910105970685
-0.899405251566
-0.888136448814
-0.876306680044
-0.863923417193
-0.850994481795
-0.837528040042
-0.823532597628
-0.809016994375
-0.793990398648
-0.778462301567
-0.762442511011
-0.745941145424
-0.728968627421
-0.711535677209
-0.693653305813
-0.675332808121
-0.656585755753
-0.637423989749
-0.61785961309
-0.597904983058
-0.577572703422
-0.556875616488
-0.535826794979
-0.514439533782
-0.492727341548
-0.470703932165
-0.44838321609
-0.425779291565
-0.402906435714
-0.379779095522
-0.356411878713
-0.332819544523
-0.309016994375
-0.28501926247
-0.26084150629
-0.236498997024
-0.212007109922
-0.187381314586
-0.162637165195
-0.137790290685
-0.112856384873
-0.0878511965507
-0.0627905195293
-0.0376901826699
-0.0125660398833
0.0125660398834
0.0376901826699
0.0627905195293
0.0878511965507
0.112856384873
0.137790290685
0.162637165195
0.187381314586
0.212007109922
0.236498997024
0.26084150629
0.28501926247
0.309016994375
0.332819544523
0.356411878713
0.379779095522
0.402906435714
0.425779291565
0.44838321609
0.470703932165
0.492727341548
0.514439533782
0.535826794979
0.556875616488
0.577572703422
0.597904983058
0.61785961309
0.637423989749
0.656585755753
0.675332808121
0.693653305813
0.711535677209
0.728968627421
0.745941145424
0.762442511011
0.778462301567
0.793990398648
0.809016994375
0.823532597628
0.837528040042
0.850994481795
0.863923417193
0.876306680044
0.888136448814
0.899405251566
0.910105970685
0.920231847366
0.929776485888
0.938733857654
0.947098304995
0.954864544747
0.962027671586
0.968583161129
0.974526872787
0.979855052384
0.984564334529
0.988651744738
0.992114701314
0.994951016981
0.997158900261
0.998736956606
0.999684189283
1.0
0.999684189283
0.998736956606
0.997158900261
0.994951016981
0.992114701314
0.988651744738
0.984564334529
0.979855052384
0.974526872787
0.968583161129
0.962027671586
0.954864544747
0.947098304995
0.938733857654
0.929776485888
0.920231847366
0.910105970685
0.899405251566
0.888136448814
0.876306680044
0.863923417193
0.850994481795
0.837528040042
0.823532597628
0.809016994375
0.793990398648
0.778462301567
0.762442511011
0.745941145424
0.728968627421
0.711535677209
0.693653305813
0.675332808121
0.656585755753
0.637423989749
0.61785961309
0.597904983058
0.577572703422
0.556875616488
0.535826794979
0.514439533782
0.492727341548
0.470703932165
0.44838321609
0.425779291565
0.402906435714
0.379779095522
0.356411878713
0.332819544523
0.309016994375
0.28501926247
0.26084150629
0.236498997024
0.212007109922
0.187381314586
0.162637165195
0.137790290685
0.112856384873
0.0878511965507
0.0627905195293
0.0376901826699
0.0125660398834
-0.0125660398834
-0.0376901826699
-0.0627905195293
-0.0878511965507
-0.112856384873
-0.137790290685
-0.162637165195
-0.187381314586
-0.212007109922
-0.236498997024
-0.26084150629
-0.28501926247
-0.309016994375
-0.332819544523
-0.356411878713
-0.379779095522
-0.402906435714
-0.425779291565
-0.44838321609
-0.470703932165
-0.492727341548
-0.514439533782
-0.535826794979
-0.556875616488
-0.577572703422
-0.597904983058
-0.61785961309
-0.637423989749
-0.656585755753
-0.675332808121
-0.693653305813
-0.711535677209
-0.728968627421
-0.745941145424
-0.762442511011
-0.778462301567
-0.793990398648
-0.809016994375
-0.823532597628
-0.837528040042
-0.850994481795
-0.863923417193
-0.876306680044
-0.888136448814
-0.899405251566
-0.910105970685
-0.920231847366
-0.929776485888
-0.938733857654
-0.947098304995
-0.954864544747
-0.962027671586
-0.968583161129
-0.974526872787
-0.979855052384
-0.984564334529
-0.988651744738
-0.992114701314
-0.994951016981
-0.997158900261
-0.998736956606
-0.999684189283
-1.0
-0.999684189283
-0.998736956606
-0.997158900261
-0.994951016981
-0.992114701314
-0.988651744738
-0.984564334529
-0.979855052384
-0.974526872787
-0.968583161129
-0.962027671586
-0.954864544747
-0.947098304995
-0.938733857654
-0.929776485888
-0.920231847366
-0.910105970685
-0.899405251566
-0.888136448814
-0.876306680044
-0.863923417193
-0.850994481795
-0.837528040042
-0.823532597628
-0.809016994375
-0.793990398648
-0.778462301567
-0.762442511011
-0.745941145424
-0.728968627421
-0.711535677209
-0.693653305813
-0.675332808121
-0.656585755753
-0.637423989749
-0.61785961309
-0.597904983058
-0.577572703422
-0.556875616488
-0.535826794979
-0.514439533782
-0.492727341548
-0.470703932165
-0.44838321609
-0.425779291565
-0.402906435714
-0.379779095522
-0.356411878713
-0.332819544523
-0.309016994375
-0.28501926247
-0.26084150629
-0.236498997024
-0.212007109922
-0.187381314586
-0.162637165195
-0.137790290685
-0.112856384873
-0.0878511965507
-0.0627905195293
-0.0376901826699
-0.0125660398833
0.0125660398834
0.0376901826699
0.0627905195293
0.0878511965507
0.112856384873
0.137790290685
0.162637165195
0.187381314586
0.212007109922
0.236498997024
0.26084150629
0.28501926247
0.309016994375
0.332819544523
0.356411878713
0.379779095522
0.402906435714
0.425779291565
0.44838321609
0.470703932165
0.492727341548
0.514439533782
0.535826794979
0.556875616488
0.577572703422
0.597904983058
0.61785961309
0.637423989749
0.656585755753
0.675332808121
0.693653305813
0.711535677209
0.728968627421
0.745941145424
0.762442511011
0.778462301567
0.793990398648
0.809016994375
0.823532597628
0.837528040042
0.850994481795
0.863923417193
0.876306680044
0.888136448814
0.899405251566
0.910105970685
0.920231847366
0.929776485888
0.938733857654
0.947098304995
0.954864544747
0.962027671586
0.968583161129
0.974526872787
0.979855052384
0.984564334529
0.988651744738
0.992114701314
0.994951016981
0.997158900261
0.998736956606
0.999684189283
1.0
0.999684189283
0.998736956606
0.997158900261
0.994951016981
0.992114701314
0.988651744738
0.984564334529
0.979855052384
0.974526872787
0.968583161129
0.962027671586
0.954864544747
0.947098304995
0.938733857654
0.929776485888
0.920231847366
0.910105970685
0.899405251566
0.888136448814
0.876306680044
0.863923417193
0.850994481795
0.837528040042
0.823532597628
0.809016994375
0.793990398648
0.778462301567
0.762442511011
0.745941145424
0.728968627421
0.711535677209
0.693653305813
0.675332808121
0.656585755753
0.637423989749
0.61785961309
0.597904983058
0.577572703422
0.556875616488
0.535826794979
0.514439533782
0.492727341548
0.470703932165
0.44838321609
0.425779291565
0.402906435714
0.379779095522
0.356411878713
0.332819544523
0.309016994375
0.28501926247
0.26084150629
0.236498997024
0.212007109922
0.187381314586
0.162637165195
0.137790290685
0.112856384873
0.0878511965507
0.0627905195293
0.0376901826699
0.0125660398834
-0.0125660398834
-0.0376901826699
-0.0627905195293
-0.0878511965507
-0.112856384873
-0.137790290685
-0.162637165195
-0.187381314586
-0.212007109922
-0.236498997024
-0.26084150629
-0.28501926247
-0.309016994375
-0.332819544523
-0.356411878713
-0.379779095522
-0.402906435714
-0.425779291565
-0.44838321609
-0.470703932165
-0.492727341548
-0.514439533782
-0.535826794979
-0.556875616488
-0.577572703422
-0.597904983058
-0.61785961309
-0.637423989749
-0.656585755753
-0.675332808121
-0.693653305813
-0.711535677209
-0.728968627421
-0.745941145424
-0.762442511011
-0.778462301567
-0.793990398648
-0.809016994375
-0.823532597628
-0.837528040042
-0.850994481795
-0.863923417193
-0.876306680044
-0.888136448814
-0.899405251566
-0.910105970685
-0.920231847366
-0.929776485888
-0.938733857654
-0.947098304995
-0.954864544747
-0.962027671586
-0.968583161129
-0.974526872787
-0.979855052384
-0.984564334529
-0.988651744738
-0.992114701314
-0.994951016981
-0.997158900261
-0.998736956606
-0.999684189283
-1.0
-0.999684189283
-0.998736956606
-0.997158900261
-0.994951016981
-0.992114701314
-0.988651744738
-0.984564334529
-0.979855052384
-0.974526872787
-0.968583161129
-0.962027671586
-0.954864544747
-0.947098304995
-0.938733857654
-0.929776485888
-0.920231847366
-0.910105970685
-0.899405251566
-0.888136448814
-0.876306680044
-0.863923417193
-0.850994481795
-0.837528040042
-0.823532597628
-0.809016994375
-0.793990398648
-0.778462301567
-0.762442511011
-0.745941145424
-0.728968627421
-0.711535677209
-0.693653305813
-0.675332808121
-0.656585755753
-0.637423989749
-0.61785961309
-0.597904983058
-0.577572703422
-0.556875616488
-0.535826794979
-0.514439533782
-0.492727341548
-0.470703932165
-0.44838321609
-0.425779291565
-0.402906435714
-0.379779095522
-0.356411878713
-0.332819544523
-0.309016994375
-0.28501926247
-0.26084150629
-0.236498997024
-0.212007109922
-0.187381314586
-0.162637165195
-0.137790290685
-0.112856384873
-0.0878511965507
-0.0627905195293
-0.0376901826699
-0.0125660398833
0.0125660398834
0.0376901826699
0.0627905195293
0.0878511965507
0.112856384873
0.137790290685
0.162637165195
0.187381314586
0.212007109922
0.236498997024
0.26084150629
0.28501926247
0.309016994375
0.332819544523
0.356411878713
0.379779095522
0.402906435714
0.425779291565
0.44838321609
0.470703932165
0.492727341548
0.514439533782
0.535826794979
0.556875616488
0.577572703422
0.597904983058
0.61785961309
0.637423989749
0.656585755753
0.675332808121
0.693653305813
0.711535677209
0.728968627421
0.745941145424
0.762442511011
0.778462301567
0.793990398648
0.809016994375
0.823532597628
0.837528040042
0.850994481795
0.863923417193
0.876306680044
0.888136448814
0.899405251566
0.910105970685
0.920231847366
0.929776485888
0.938733857654
0.947098304995
0.954864544747
0.962027671586
0.968583161129
0.974526872787
0.979855052384
0.984564334529
0.988651744738
0.992114701314
0.994951016981
0.997158900261
0.998736956606
0.999684189283
1.0
0.999684189283
0.998736956606
0.997158900261
0.994951016981
0.992114701314
0.988651744738
0.984564334529
0.979855052384
0.974526872787
0.968583161129
0.962027671586
0.954864544747
0.947098304995
0.938733857654
0.929776485888
0.920231847366
0.910105970685
0.899405251566
0.888136448814
0.876306680044
0.863923417193
0.850994481795
0.837528040042
0.823532597628
0.809016994375
0.793990398648
0.778462301567
0.762442511011
0.745941145424
0.728968627421
0.711535677209
0.693653305813
0.675332808121
0.656585755753
0.637423989749
0.61785961309
0.597904983058
0.577572703422
0.556875616488
0.535826794979
0.514439533782
0.492727341548
0.470703932165
0.44838321609
0.425779291565
0.402906435714
0.379779095522
0.356411878713
0.332819544523
0.309016994375
0.28501926247
0.26084150629
0.236498997024
0.212007109922
0.187381314586
0.162637165195
0.137790290685
0.112856384873
0.0878511965507
0.0627905195293
0.0376901826699
0.0125660398834
-0.0125660398834
-0.0376901826699
-0.0627905195293
-0.0878511965507
-0.112856384873
-0.137790290685
-0.162637165195
-0.187381314586
-0.212007109922
-0.236498997024
-0.26084150629
-0.28501926247
-0.309016994375
-0.332819544523
-0.356411878713
-0.379779095522
-0.402906435714
-0.425779291565
-0.44838321609
-0.470703932165
-0.492727341548
-0.514439533782
-0.535826794979
-0.556875616488
-0.577572703422
-0.597904983058
-0.61785961309
-0.637423989749
-0.656585755753
-0.675332808121
-0.693653305813
-0.711535677209
-0.728968627421
-0.745941145424
-0.762442511011
-0.778462301567
-0.793990398648
-0.809016994375
-0.823532597628
-0.837528040042
-0.850994481795
-0.863923417193
-0.876306680044
-0.888136448814
-0.899405251566
-0.910105970685
-0.920231847366
-0.929776485888
-0.938733857654
-0.947098304995
-0.954864544747
-0.962027671586
-0.968583161129
-0.974526872787
-0.979855052384
-0.984564334529
-0.988651744738
-0.992114701314
-0.994951016981
-0.997158900261
-0.998736956606
-0.999684189283
-1.0
-0.999684189283
-0.998736956606
-0.997158900261
-0.994951016981
-0.992114701314
-0.988651744738
-0.984564334529
-0.979855052384
-0.974526872787
-0.968583161129
-0.962027671586
-0.954864544747
-0.947098304995
-0.938733857654
-0.929776485888
-0.920231847366
-0.910105970685
-0.899405251566
-0.888136448814
-0.876306680044
-0.863923417193
-0.850994481795
-0.837528040042
-0.823532597628
-0.809016994375
-0.793990398648
-0.778462301567
-0.762442511011
-0.745941145424
-0.728968627421
-0.711535677209
-0.693653305813
-0.675332808121
-0.656585755753
-0.637423989749
-0.61785961309
-0.597904983058
-0.577572703422
-0.556875616488
-0.535826794979
-0.514439533782
-0.492727341548
-0.470703932165
-0.44838321609
-0.425779291565
-0.402906435714
-0.379779095522
-0.356411878713
-0.332819544523
-0.309016994375
-0.28501926247
-0.26084150629
-0.236498997024
-0.212007109922
-0.187381314586
-0.162637165195
-0.137790290685
-0.112856384873
-0.0878511965507
-0.0627905195293
-0.0376901826699
-0.0125660398833
0.0125660398834
0.0376901826699
0.0627905195293
0.0878511965507
0.112856384873
0.137790290685
0.162637165195
0.187381314586
0.212007109922
0.236498997024
0.26084150629
0.28501926247
0.309016994375
0.332819544523
0.356411878713
0.379779095522
0.402906435714
0.425779291565
0.44838321609
0.470703932165
0.492727341548
0.514439533782
0.535826794979
0.556875616488
0.577572703422
0.597904983058
0.61785961309
0.637423989749
0.656585755753
0.675332808121
0.693653305813
0.711535677209
0.728968627421
0.745941145424
0.762442511011
0.778462301567
0.793990398648
0.809016994375
0.823532597628
0.837528040042
0.850994481795
0.863923417193
0.876306680044
0.888136448814
0.899405251566
0.910105970685
0.920231847366
0.929776485888
0.938733857654
0.947098304995
0.954864544747
0.962027671586
0.968583161129
0.974526872787
0.979855052384
0.984564334529
0.988651744738
0.992114701314
0.994951016981
0.997158900261
0.998736956606
0.999684189283
1.0
0.999684189283
0.998736956606
0.997158900261
0.994951016981
0.992114701314
0.988651744738
0.984564334529
0.979855052384
0.974526872787
0.968583161129
0.962027671586
0.954864544747
0.947098304995
0.938733857654
0.929776485888
0.920231847366
0.910105970685
0.899405251566
0.888136448814
0.876306680044
0.863923417193
0.850994481795
0.837528040042
0.823532597628
0.809016994375
0.793990398648
0.778462301567
0.762442511011
0.745941145424
0.728968627421
0.711535677209
0.693653305813
0.675332808121
0.656585755753
0.637423989749
0.61785961309
0.597904983058
0.577572703422
0.556875616488
0.535826794979
0.514439533782
0.492727341548
0.470703932165
0.44838321609
0.425779291565
0.402906435714
0.379779095522
0.356411878713
0.332819544523
0.309016994375
0.28501926247
0.26084150629
0.236498997024
0.212007109922
0.187381314586
0.162637165195
0.137790290685
0.112856384873
0.0878511965507
0.0627905195293
0.0376901826699
0.0125660398834
-0.0125660398834
-0.0376901826699
-0.0627905195293
-0.0878511965508
-0.112856384873
-0.137790290685
-0.162637165195
-0.187381314586
-0.212007109922
-0.236498997024
-0.26084150629
-0.28501926247
-0.309016994375
-0.332819544523
-0.356411878713
-0.379779095522
-0.402906435714
-0.425779291565
-0.44838321609
-0.470703932165
-0.492727341548
-0.514439533782
-0.535826794979
-0.556875616488
-0.577572703422
-0.597904983058
-0.61785961309
-0.637423989749
-0.656585755753
-0.675332808121
-0.693653305813
-0.711535677209
-0.728968627421
-0.745941145424
-0.762442511011
-0.778462301567
-0.793990398648
-0.809016994375
-0.823532597628
-0.837528040042
-0.850994481795
-0.863923417193
-0.876306680044
-0.888136448814
-0.899405251566
-0.910105970685
-0.920231847366
-0.929776485888
-0.938733857654
-0.947098304995
-0.954864544747
-0.962027671586
-0.968583161129
-0.974526872787
-0.979855052384
-0.984564334529
-0.988651744738
-0.992114701314
-0.994951016981
-0.997158900261
-0.998736956606
-0.999684189283
-1.0
-0.999684189283
-0.998736956606
-0.997158900261
-0.994951016981
-0.992114701314
-0.988651744738
-0.984564334529
-0.979855052384
-0.974526872787
-0.968583161129
-0.962027671586
-0.954864544747
-0.947098304995
-0.938733857654
-0.929776485888
-0.920231847366
-0.910105970685
-0.899405251566
-0.888136448814
-0.876306680044
-0.863923417193
-0.850994481795
-0.837528040042
-0.823532597628
-0.809016994375
-0.793990398648
-0.778462301567
-0.762442511011
-0.745941145424
-0.728968627421
-0.711535677209
-0.693653305813
-0.675332808121
-0.656585755753
-0.637423989749
-0.61785961309
-0.597904983058
-0.577572703422
-0.556875616488
-0.535826794979
-0.514439533781
-0.492727341548
-0.470703932165
-0.44838321609
-0.425779291565
-0.402906435714
-0.379779095522
-0.356411878713
-0.332819544523
-0.309016994375
-0.28501926247
-0.26084150629
-0.236498997024
-0.212007109922
-0.187381314586
-0.162637165195
-0.137790290685
-0.112856384873
-0.0878511965507
-0.0627905195293
-0.0376901826699
-0.0125660398833
0.0125660398834
0.0376901826699
0.0627905195293
0.0878511965507
0.112856384873
0.137790290685
0.162637165195
0.187381314586
0.212007109922
0.236498997024
0.26084150629
0.28501926247
0.309016994375
0.332819544523
0.356411878713
0.379779095522
0.402906435714
0.425779291565
0.44838321609
0.470703932165
0.492727341548
0.514439533782
0.535826794979
0.556875616488
0.577572703422
0.597904983058
0.61785961309
0.637423989749
0.656585755753
0.675332808121
0.693653305813
0.711535677209
0.728968627421
0.745941145424
0.762442511011
0.778462301567
0.793990398648
0.809016994375
0.823532597628
0.837528040042
0.850994481795
0.863923417193
0.876306680044
0.888136448814
0.899405251566
0.910105970685
0.920231847366
0.929776485888
0.938733857654
0.947098304995
0.954864544747
0.962027671586
0.968583161129
0.974526872787
0.979855052384
0.984564334529
0.988651744738
0.992114701314
0.994951016981
0.997158900261
0.998736956606
0.999684189283
1.0
0.999684189283
0.998736956606
0.997158900261
0.994951016981
0.992114701314
0.988651744738
0.984564334529
0.979855052384
0.974526872787
0.968583161129
0.962027671586
0.954864544747
0.947098304995
0.938733857654
0.929776485888
0.920231847366
0.910105970685
0.899405251566
0.888136448814
0.876306680044
0.863923417193
0.850994481795
0.837528040042
0.823532597628
0.809016994375
0.793990398648
0.778462301567
0.762442511011
0.745941145424
0.728968627421
0.711535677209
0.693653305813
0.675332808121
0.656585755753
0.637423989749
0.61785961309
0.597904983058
0.577572703422
0.556875616488
0.535826794979
0.514439533782
0.492727341548
0.470703932165
0.44838321609
0.425779291565
0.402906435714
0.379779095522
0.356411878713
0.332819544523
0.309016994375
0.28501926247
0.26084150629
0.236498997024
0.212007109922
0.187381314586
0.162637165195
0.137790290685
0.112856384873
0.0878511965507
0.0627905195293
0.0376901826699
0.0125660398833
-0.0125660398834
-0.0376901826699
-0.0627905195293
-0.0878511965507
-0.112856384873
-0.137790290685
-0.162637165195
-0.187381314586
-0.212007109922
-0.236498997024
-0.26084150629
-0.28501926247
-0.309016994375
-0.332819544523
-0.356411878713
-0.379779095522
-0.402906435714
-0.425779291565
-0.44838321609
-0.470703932165
-0.492727341548
-0.514439533782
-0.535826794979
-0.556875616488
-0.577572703422
-0.597904983058
-0.61785961309
-0.637423989749
-0.656585755753
-0.675332808121
-0.693653305813
-0.711535677209
-0.728968627421
-0.745941145424
-0.762442511011
-0.778462301567
-0.793990398648
-0.809016994375
-0.823532597628
-0.837528040042
-0.850994481795
-0.863923417193
-0.876306680044
-0.888136448814
-0.899405251566
-0.910105970685
-0.920231847366
-0.929776485888
-0.938733857654
-0.947098304995
-0.954864544747
-0.962027671586
-0.968583161129
-0.974526872787
-0.979855052384
-0.984564334529
-0.988651744738
-0.992114701314
-0.994951016981
-0.997158900261
-0.998736956606
-0.999684189283
-1.0
-0.999684189283
-0.998736956606
-0.997158900261
-0.994951016981
-0.992114701314
-0.988651744738
-0.984564334529
-0.979855052384
-0.974526872787
-0.968583161129
-0.962027671586
-0.954864544747
-0.947098304995
-0.938733857654
-0.929776485888
-0.920231847366
-0.910105970685
-0.899405251566
-0.888136448814
-0.876306680044
-0.863923417193
-0.850994481795
-0.837528040042
-0.823532597628
-0.809016994375
-0.793990398648
-0.778462301567
-0.762442511011
-0.745941145424
-0.728968627421
-0.711535677209
-0.693653305813
-0.675332808121
-0.656585755753
-0.637423989749
-0.61785961309
-0.597904983058
-0.577572703422
-0.556875616488
-0.535826794979
-0.514439533782
-0.492727341548
-0.470703932165
-0.44838321609
-0.425779291565
-0.402906435714
-0.379779095522
-0.356411878713
-0.332819544523
-0.309016994375
-0.28501926247
-0.26084150629
-0.236498997024
-0.212007109922
-0.187381314586
-0.162637165195
-0.137790290685
-0.112856384873
-0.0878511965507
-0.0627905195293
-0.0376901826699
-0.0125660398834
0.0125660398833
0.0376901826699
0.0627905195293
0.0878511965507
0.112856384873
0.137790290685
0.162637165195
0.187381314586
0.212007109922
0.236498997024
0.26084150629
0.28501926247
0.309016994375
0.332819544523
0.356411878713
0.379779095522
0.402906435714
0.425779291565
0.44838321609
0.470703932165
0.492727341548
0.514439533782
0.535826794979
0.556875616488
0.577572703422
0.597904983058
0.61785961309
0.637423989749
0.656585755753
0.675332808121
0.693653305813
0.711535677209
0.728968627421
0.745941145424
0.762442511011
0.778462301567
0.793990398648
0.809016994375
0.823532597628
0.837528040042
0.850994481795
0.863923417193
0.876306680044
0.888136448814
0.899405251566
0.910105970685
0.920231847366
0.929776485888
0.938733857654
0.947098304995
0.954864544747
0.962027671586
0.968583161129
0.974526872787
0.979855052384
0.984564334529
0.988651744738
0.992114701314
0.994951016981
0.997158900261
0.998736956606
0.999684189283
1.0
0.999684189283
0.998736956606
0.997158900261
0.994951016981
0.992114701314
0.988651744738
0.984564334529
0.979855052384
0.974526872787
0.968583161129
0.962027671586
0.954864544747
0.947098304995
0.938733857654
0.929776485888
0.920231847366
0.910105970685
0.899405251566
0.888136448814
0.876306680044
0.863923417193
0.850994481795
0.837528040042
0.823532597628
0.809016994375
0.793990398648
0.778462301567
0.762442511011
0.745941145424
0.728968627421
0.711535677209
0.693653305813
0.675332808121
0.656585755753
0.637423989749
0.61785961309
0.597904983058
0.577572703422
0.556875616488
0.535826794979
0.514439533782
0.492727341548
0.470703932165
0.44838321609
0.425779291565
0.402906435714
0.379779095522
0.356411878713
0.332819544523
0.309016994375
0.28501926247
0.26084150629
0.236498997024
0.212007109922
0.187381314586
0.162637165195
0.137790290685
0.112856384873
0.0878511965507
0.0627905195293
0.0376901826699
0.0125660398834
-0.0125660398834
-0.0376901826699
-0.0627905195293
-0.0878511965508
-0.112856384873
-0.137790290685
-0.162637165195
-0.187381314586
-0.212007109922
-0.236498997024
-0.26084150629
-0.28501926247
-0.309016994375
-0.332819544523
-0.356411878713
-0.379779095522
-0.402906435714
-0.425779291565
-0.44838321609
-0.470703932165
-0.492727341548
-0.514439533782
-0.535826794979
-0.556875616488
-0.577572703422
-0.597904983058
-0.61785961309
-0.637423989749
-0.656585755753
-0.675332808121
-0.693653305813
-0.711535677209
-0.728968627421
-0.745941145424
-0.762442511011
-0.778462301567
-0.793990398648
-0.809016994375
-0.823532597628
-0.837528040042
-0.850994481795
-0.863923417193
-0.876306680044
-0.888136448814
-0.899405251566
-0.910105970685
-0.920231847366
-0.929776485888
-0.938733857654
-0.947098304995
-0.954864544747
-0.962027671586
-0.968583161129
-0.974526872787
-0.979855052384
-0.984564334529
-0.988651744738
-0.992114701314
-0.994951016981
-0.997158900261
-0.998736956606
-0.999684189283
-1.0
-0.999684189283
-0.998736956606
-0.997158900261
-0.994951016981
-0.992114701314
-0.988651744738
-0.984564334529
-0.979855052384
-0.974526872787
-0.968583161129
-0.962027671586
-0.954864544747
-0.947098304995
-0.938733857654
-0.929776485888
-0.920231847366
-0.910105970685
-0.899405251566
-0.888136448814
-0.876306680044
-0.863923417193
-0.850994481795
-0.837528040042
-0.823532597628
-0.809016994375
-0.793990398648
-0.778462301567
-0.762442511011
-0.745941145424
-0.728968627421
-0.711535677209
-0.693653305813
-0.675332808121
-0.656585755753
-0.637423989749
-0.61785961309
-0.597904983058
-0.577572703422
-0.556875616488
-0.535826794979
-0.514439533782
-0.492727341548
-0.470703932165
-0.44838321609
-0.425779291565
-0.402906435714
-0.379779095522
-0.356411878713
-0.332819544523
-0.309016994375
-0.28501926247
-0.26084150629
-0.236498997024
-0.212007109922
-0.187381314586
-0.162637165195
-0.137790290685
-0.112856384873
-0.0878511965507
-0.0627905195293
-0.0376901826699
-0.0125660398833
0.0125660398834
0.0376901826699
0.0627905195293
0.0878511965507
0.112856384873
0.137790290685
0.162637165195
0.187381314586
0.212007109922
0.236498997024
0.26084150629
0.28501926247
0.309016994375
0.332819544523
0.356411878713
0.379779095522
0.402906435714
0.425779291565
0.44838321609
0.470703932165
0.492727341548
0.514439533782
0.535826794979
0.556875616488
0.577572703422
0.597904983058
0.61785961309
0.637423989749
0.656585755753
0.675332808121
0.693653305813
0.711535677209
0.728968627421
0.745941145424
0.762442511011
0.778462301567
0.793990398648
0.809016994375
0.823532597628
0.837528040042
0.850994481795
0.863923417193
0.876306680044
0.888136448814
0.899405251566
0.910105970685
0.920231847366
0.929776485888
0.938733857654
0.947098304995
0.954864544747
0.962027671586
0.968583161129
0.974526872787
0.979855052384
0.984564334529
0.988651744738
0.992114701314
0.994951016981
0.997158900261
0.998736956606
0.999684189283
1.0
0.999684189283
0.998736956606
0.997158900261
0.994951016981
0.992114701314
0.988651744738
0.984564334529
0.979855052384
0.974526872787
0.968583161129
0.962027671586
0.954864544747
0.947098304995
0.938733857654
0.929776485888
0.920231847366
0.910105970685
0.899405251566
0.888136448814
0.876306680044
0.863923417193
0.850994481795
0.837528040042
0.823532597628
0.809016994375
0.793990398648
0.778462301567
0.762442511011
0.745941145424
0.728968627421
0.711535677209
0.693653305813
0.675332808121
0.656585755753
0.637423989749
0.61785961309
0.597904983058
0.577572703422
0.556875616488
0.535826794979
0.514439533782
0.492727341548
0.470703932165
0.44838321609
0.425779291565
0.402906435714
0.379779095522
0.356411878713
0.332819544523
0.309016994375
0.28501926247
0.26084150629
0.236498997024
0.212007109922
0.187381314586
0.162637165195
0.137790290685
0.112856384873
0.0878511965507
0.0627905195293
0.0376901826699
0.0125660398833
-0.0125660398834
-0.0376901826699
-0.0627905195293
-0.0878511965507
-0.112856384873
-0.137790290685
-0.162637165195
-0.187381314586
-0.212007109922
-0.236498997024
-0.26084150629
-0.28501926247
-0.309016994375
-0.332819544523
-0.356411878713
-0.379779095522
-0.402906435714
-0.425779291565
-0.44838321609
-0.470703932165
-0.492727341548
-0.514439533782
-0.535826794979
-0.556875616488
-0.577572703422
-0.597904983058
-0.61785961309
-0.637423989749
-0.656585755753
-0.675332808121
-0.693653305813
-0.711535677209
-0.728968627421
-0.745941145424
-0.762442511011
-0.778462301567
-0.793990398648
-0.809016994375
-0.823532597628
-0.837528040042
-0.850994481795
-0.863923417193
-0.876306680044
-0.888136448814
-0.899405251566
-0.910105970685
-0.920231847366
-0.929776485888
-0.938733857654
-0.947098304995
-0.954864544747
-0.962027671586
-0.968583161129
-0.974526872787
-0.979855052384
-0.984564334529
-0.988651744738
-0.992114701314
-0.994951016981
-0.997158900261
-0.998736956606
-0.999684189283
-1.0
-0.999684189283
-0.998736956606
-0.997158900261
-0.994951016981
-0.992114701314
-0.988651744738
-0.984564334529
-0.979855052384
-0.974526872787
-0.968583161129
-0.962027671586
-0.954864544747
-0.947098304995
-0.938733857654
-0.929776485888
-0.920231847366
-0.910105970685
-0.899405251566
-0.888136448814
-0.876306680044
-0.863923417193
-0.850994481795
-0.837528040042
-0.823532597628
-0.809016994375
-0.793990398648
-0.778462301567
-0.762442511011
-0.745941145424
-0.728968627421
-0.711535677209
-0.693653305813
-0.675332808121
-0.656585755753
-0.637423989749
-0.61785961309
-0.597904983058
-0.577572703422
-0.556875616488
-0.535826794979
-0.514439533782
-0.492727341548
-0.470703932165
-0.44838321609
-0.425779291565
-0.402906435714
-0.379779095522
-0.356411878713
-0.332819544523
-0.309016994375
-0.28501926247
-0.26084150629
-0.236498997024
-0.212007109922
-0.187381314586
-0.162637165195
-0.137790290685
-0.112856384873
-0.0878511965507
-0.0627905195293
-0.0376901826699
-0.0125660398834
0.0125660398834
0.0376901826699
0.0627905195293
0.0878511965507
0.112856384873
0.137790290685
0.162637165195
0.187381314586
0.212007109922
0.236498997024
0.26084150629
0.28501926247
0.309016994375
0.332819544523
0.356411878713
0.379779095522
0.402906435714
0.425779291565
0.44838321609
0.470703932165
0.492727341548
0.514439533782
0.535826794979
0.556875616488
0.577572703422
0.597904983058
0.61785961309
0.637423989749
0.656585755753
0.675332808121
0.693653305813
0.711535677209
0.728968627421
0.745941145424
0.762442511011
0.778462301567
0.793990398648
0.809016994375
0.823532597628
0.837528040042
0.850994481795
0.863923417193
0.876306680044
0.888136448814
0.899405251566
0.910105970685
0.920231847366
0.929776485888
0.938733857654
0.947098304995
0.954864544747
0.962027671586
0.968583161129
0.974526872787
0.979855052384
0.984564334529
0.988651744738
0.992114701314
0.994951016981
0.997158900261
0.998736956606
0.999684189283
1.0
0.999684189283
0.998736956606
0.997158900261
0.994951016981
0.992114701314
0.988651744738
0.984564334529
0.979855052384
0.974526872787
0.968583161129
0.962027671586
0.954864544747
0.947098304995
0.938733857654
0.929776485888
0.920231847366
0.910105970685
0.899405251566
0.888136448814
0.876306680044
0.863923417193
0.850994481795
0.837528040042
0.823532597628
0.809016994375
0.793990398648
0.778462301567
0.762442511011
0.745941145424
0.728968627421
0.711535677209
0.693653305813
0.675332808121
0.656585755753
0.637423989749
0.61785961309
0.597904983058
0.577572703422
0.556875616488
0.535826794979
0.514439533782
0.492727341548
0.470703932165
0.44838321609
0.425779291565
0.402906435714
0.379779095522
0.356411878713
0.332819544523
0.309016994375
0.28501926247
0.26084150629
0.236498997024
0.212007109922
0.187381314586
0.162637165195
0.137790290685
0.112856384873
0.0878511965507
0.0627905195293
0.0376901826699
0.0125660398834
-0.0125660398834
-0.0376901826699
-0.0627905195293
-0.0878511965508
-0.112856384873
-0.137790290685
-0.162637165195
-0.187381314586
-0.212007109922
-0.236498997024
-0.26084150629
-0.28501926247
-0.309016994375
-0.332819544523
-0.356411878713
-0.379779095522
-0.402906435714
-0.425779291565
-0.44838321609
-0.470703932165
-0.492727341548
-0.514439533782
-0.535826794979
-0.556875616488
-0.577572703422
-0.597904983058
-0.61785961309
-0.637423989749
-0.656585755753
-0.675332808121
-0.693653305813
-0.711535677209
-0.728968627421
-0.745941145424
-0.762442511011
-0.778462301567
-0.793990398648
-0.809016994375
-0.823532597628
-0.837528040042
-0.850994481795
-0.863923417193
-0.876306680044
-0.888136448814
-0.899405251566
-0.910105970685
-0.920231847366
-0.929776485888
-0.938733857654
-0.947098304995
-0.954864544747
-0.962027671586
-0.968583161129
-0.974526872787
-0.979855052384
-0.984564334529
-0.988651744738
-0.992114701314
-0.994951016981
-0.997158900261
-0.998736956606
-0.999684189283
-1.0
-0.999684189283
-0.998736956606
-0.997158900261
-0.994951016981
-0.992114701314
-0.988651744738
-0.984564334529
-0.979855052384
-0.974526872787
-0.968583161129
-0.962027671586
-0.954864544747
-0.947098304995
-0.938733857654
-0.929776485888
-0.920231847366
-0.910105970685
-0.899405251566
-0.888136448814
-0.876306680044
-0.863923417193
-0.850994481795
-0.837528040042
-0.823532597628
-0.809016994375
-0.793990398648
-0.778462301567
-0.762442511011
-0.745941145424
-0.728968627421
-0.711535677209
-0.693653305813
-0.675332808121
-0.656585755753
-0.637423989749
-0.61785961309
-0.597904983058
-0.577572703422
-0.556875616488
-0.535826794979
-0.514439533782
-0.492727341548
-0.470703932165
-0.44838321609
-0.425779291565
-0.402906435714
-0.379779095522
-0.356411878713
-0.332819544523
-0.309016994375
-0.28501926247
-0.26084150629
-0.236498997024
-0.212007109922
-0.187381314586
-0.162637165195
-0.137790290685
-0.112856384873
-0.0878511965507
-0.0627905195293
-0.0376901826699
-0.0125660398834
0.0125660398834
0.0376901826699
0.0627905195293
0.0878511965507
0.112856384873
0.137790290685
0.162637165195
0.187381314586
0.212007109922
0.236498997024
0.26084150629
0.28501926247
0.309016994375
0.332819544523
0.356411878713
0.379779095522
0.402906435714
0.425779291565
0.44838321609
0.470703932165
0.492727341548
0.514439533782
0.535826794979
0.556875616488
0.577572703422
0.597904983058
0.61785961309
0.637423989749
0.656585755753
0.675332808121
0.693653305813
0.711535677209
0.728968627421
0.745941145424
0.762442511011
0.778462301567
0.793990398648
0.809016994375
0.823532597628
0.837528040042
0.850994481795
0.863923417193
0.876306680044
0.888136448814
0.899405251566
0.910105970685
0.920231847366
0.929776485888
0.938733857654
0.947098304995
0.954864544747
0.962027671586
0.968583161129
0.974526872787
0.979855052384
0.984564334529
0.988651744738
0.992114701314
0.994951016981
0.997158900261
0.998736956606
0.999684189283
1.0
0.999684189283
0.998736956606
0.997158900261
0.994951016981
0.992114701314
0.988651744738
0.984564334529
0.979855052384
0.974526872787
0.968583161129
0.962027671586
0.954864544747
0.947098304995
0.938733857654
0.929776485888
0.920231847366
0.910105970685
0.899405251566
0.888136448814
0.876306680044
0.863923417193
0.850994481795
0.837528040042
0.823532597628
0.809016994375
0.793990398648
0.778462301567
0.762442511011
0.745941145424
0.728968627421
0.711535677209
0.693653305813
0.675332808121
0.656585755753
0.637423989749
0.61785961309
0.597904983058
0.577572703422
0.556875616488
0.535826794979
0.514439533782
0.492727341548
0.470703932165
0.44838321609
0.425779291565
0.402906435714
0.379779095522
0.356411878713
0.332819544523
0.309016994375
0.28501926247
0.26084150629
0.236498997024
0.212007109922
0.187381314586
0.162637165195
0.137790290685
0.112856384873
0.0878511965507
0.0627905195293
0.0376901826699
0.0125660398833
-0.0125660398834
-0.0376901826699
-0.0627905195293
-0.0878511965507
-0.112856384873
-0.137790290685
-0.162637165195
-0.187381314586
-0.212007109922
-0.236498997024
-0.26084150629
-0.28501926247
-0.309016994375
-0.332819544523
-0.356411878713
-0.379779095522
-0.402906435714
-0.425779291565
-0.44838321609
-0.470703932165
-0.492727341548
-0.514439533782
-0.535826794979
-0.556875616488
-0.577572703422
-0.597904983058
-0.61785961309
-0.637423989749
-0.656585755753
-0.675332808121
-0.693653305813
-0.711535677209
-0.728968627421
-0.745941145424
-0.762442511011
-0.778462301567
-0.793990398648
-0.809016994375
-0.823532597628
-0.837528040042
-0.850994481795
-0.863923417193
-0.876306680044
-0.888136448814
-0.899405251566
-0.910105970685
-0.920231847366
-0.929776485888
-0.938733857654
-0.947098304995
-0.954864544747
-0.962027671586
-0.968583161129
-0.974526872787
-0.979855052384
-0.984564334529
-0.988651744738
-0.992114701314
-0.994951016981
-0.997158900261
-0.998736956606
-0.999684189283
-1.0
-0.999684189283
-0.998736956606
-0.997158900261
-0.994951016981
-0.992114701314
-0.988651744738
-0.984564334529
-0.979855052384
-0.974526872787
-0.968583161129
-0.962027671586
-0.954864544747
-0.947098304995
-0.938733857654
-0.929776485888
-0.920231847366
-0.910105970685
-0.899405251566
-0.888136448814
-0.876306680044
-0.863923417193
-0.850994481795
-0.837528040042
-0.823532597628
-0.809016994375
-0.793990398648
-0.778462301567
-0.762442511011
-0.745941145424
-0.728968627421
-0.711535677209
-0.693653305813
-0.675332808121
-0.656585755753
-0.637423989749
-0.61785961309
-0.597904983058
-0.577572703422
-0.556875616488
-0.535826794979
-0.514439533782
-0.492727341548
-0.470703932165
-0.44838321609
-0.425779291565
-0.402906435714
-0.379779095522
-0.356411878713
-0.332819544523
-0.309016994375
-0.28501926247
-0.26084150629
-0.236498997024
-0.212007109922
-0.187381314586
-0.162637165195
-0.137790290685
-0.112856384873
-0.0878511965507
-0.0627905195293
-0.0376901826699
-0.0125660398834
0.0125660398834
0.0376901826699
0.0627905195293
0.0878511965507
0.112856384873
0.137790290685
0.162637165195
0.187381314586
0.212007109922
0.236498997024
0.26084150629
0.28501926247
0.309016994375
0.332819544523
0.356411878713
0.379779095522
0.402906435714
0.425779291565
0.44838321609
0.470703932165
0.492727341548
0.514439533782
0.535826794979
0.556875616488
0.577572703422
0.597904983058
0.61785961309
0.637423989749
0.656585755753
0.675332808121
0.693653305813
0.711535677209
0.728968627421
0.745941145424
0.762442511011
0.778462301567
0.793990398648
0.809016994375
0.823532597628
0.837528040042
0.850994481795
0.863923417193
0.876306680044
0.888136448814
0.899405251566
0.910105970685
0.920231847366
0.929776485888
0.938733857654
0.947098304995
0.954864544747
0.962027671586
0.968583161129
0.974526872787
0.979855052384
0.984564334529
0.988651744738
0.992114701314
0.994951016981
0.997158900261
0.998736956606
0.999684189283
1.0
0.999684189283
0.998736956606
0.997158900261
0.994951016981
0.992114701314
0.988651744738
0.984564334529
0.979855052384
0.974526872787
0.968583161129
0.962027671586
0.954864544747
0.947098304995
0.938733857654
0.929776485888
0.920231847366
0.910105970685
0.899405251566
0.888136448814
0.876306680044
0.863923417193
0.850994481795
0.837528040042
0.823532597628
0.809016994375
0.793990398648
0.778462301567
0.762442511011
0.745941145424
0.728968627421
0.711535677209
0.693653305813
0.675332808121
0.656585755753
0.637423989749
0.61785961309
0.597904983058
0.577572703422
0.556875616488
0.535826794979
0.514439533782
0.492727341548
0.470703932165
0.44838321609
0.425779291565
0.402906435714
0.379779095522
0.356411878713
0.332819544523
0.309016994375
0.28501926247
0.26084150629
0.236498997024
0.212007109922
0.187381314586
0.162637165195
0.137790290685
0.112856384873
0.0878511965507
0.0627905195293
0.0376901826699
0.0125660398834
-0.0125660398833
-0.0376901826699
-0.0627905195293
-0.0878511965507
-0.112856384873
-0.137790290685
-0.162637165195
-0.187381314586
-0.212007109922
-0.236498997024
-0.26084150629
-0.28501926247
-0.309016994375
-0.332819544523
-0.356411878713
-0.379779095522
-0.402906435714
-0.425779291565
-0.44838321609
-0.470703932165
-0.492727341548
-0.514439533782
-0.535826794979
-0.556875616488
-0.577572703422
-0.597904983058
-0.61785961309
-0.637423989749
-0.656585755753
-0.675332808121
-0.693653305813
-0.711535677209
-0.728968627421
-0.745941145424
-0.762442511011
-0.778462301567
-0.793990398648
-0.809016994375
-0.823532597628
-0.837528040042
-0.850994481795
-0.863923417193
-0.876306680044
-0.888136448814
-0.899405251566
-0.910105970685
-0.920231847366
-0.929776485888
-0.938733857654
-0.947098304995
-0.954864544747
-0.962027671586
-0.968583161129
-0.974526872787
-0.979855052384
-0.984564334529
-0.988651744738
-0.992114701314
-0.994951016981
-0.997158900261
-0.998736956606
-0.999684189283
-1.0
-0.999684189283
-0.998736956606
-0.997158900261
-0.994951016981
-0.992114701314
-0.988651744738
-0.984564334529
-0.979855052384
-0.974526872787
-0.968583161129
-0.962027671586
-0.954864544747
-0.947098304995
-0.938733857654
-0.929776485888
-0.920231847366
-0.910105970685
-0.899405251566
-0.888136448814
-0.876306680044
-0.863923417193
-0.850994481795
-0.837528040042
-0.823532597628
-0.809016994375
-0.793990398648
-0.778462301567
-0.762442511011
-0.745941145424
-0.728968627421
-0.711535677209
-0.693653305813
-0.675332808121
-0.656585755753
-0.637423989749
-0.61785961309
-0.597904983058
-0.577572703422
-0.556875616488
-0.535826794979
-0.514439533782
-0.492727341548
-0.470703932165
-0.44838321609
-0.425779291565
-0.402906435714
-0.379779095522
-0.356411878713
-0.332819544523
-0.309016994375
-0.28501926247
-0.26084150629
-0.236498997024
-0.212007109922
-0.187381314586
-0.162637165195
-0.137790290685
-0.112856384873
-0.0878511965507
-0.0627905195293
-0.0376901826699
-0.0125660398834
0.0125660398834
0.0376901826699
0.0627905195293
0.0878511965507
0.112856384873
0.137790290685
0.162637165195
0.187381314586
0.212007109922
0.236498997024
0.26084150629
0.28501926247
0.309016994375
0.332819544523
0.356411878713
0.379779095522
0.402906435714
0.425779291565
0.44838321609
0.470703932165
0.492727341548
0.514439533782
0.535826794979
0.556875616488
0.577572703422
0.597904983058
0.61785961309
0.637423989749
0.656585755753
0.675332808121
0.693653305813
0.711535677209
0.728968627421
0.745941145424
0.762442511011
0.778462301567
0.793990398648
0.809016994375
0.823532597628
0.837528040042
0.850994481795
0.863923417193
0.876306680044
0.888136448814
0.899405251566
0.910105970685
0.920231847366
0.929776485888
0.938733857654
0.947098304995
0.954864544747
0.962027671586
0.968583161129
0.974526872787
0.979855052384
0.984564334529
0.988651744738
0.992114701314
0.994951016981
0.997158900261
0.998736956606
0.999684189283
1.0
0.999684189283
0.998736956606
0.997158900261
0.994951016981
0.992114701314
0.988651744738
0.984564334529
0.979855052384
0.974526872787
0.968583161129
0.962027671586
0.954864544747
0.947098304995
0.938733857654
0.929776485888
0.920231847366
0.910105970685
0.899405251566
0.888136448814
0.876306680044
0.863923417193
0.850994481795
0.837528040042
0.823532597628
0.809016994375
0.793990398648
0.778462301567
0.762442511011
0.745941145424
0.728968627421
0.711535677209
0.693653305813
0.675332808121
0.656585755753
0.637423989749
0.61785961309
0.597904983058
0.577572703422
0.556875616488
0.535826794979
0.514439533782
0.492727341548
0.470703932165
0.44838321609
0.425779291565
0.402906435714
0.379779095522
0.356411878713
0.332819544523
0.309016994375
0.28501926247
0.26084150629
0.236498997024
0.212007109922
0.187381314586
0.162637165195
0.137790290685
0.112856384873
0.0878511965507
0.0627905195293
0.0376901826699
0.0125660398833
-0.0125660398834
-0.0376901826699
-0.0627905195293
-0.0878511965507
-0.112856384873
-0.137790290685
-0.162637165195
-0.187381314586
-0.212007109922
-0.236498997024
-0.26084150629
-0.28501926247
-0.309016994375
-0.332819544523
-0.356411878713
-0.379779095522
-0.402906435714
-0.425779291565
-0.44838321609
-0.470703932165
-0.492727341548
-0.514439533782
-0.535826794979
-0.556875616488
-0.577572703422
-0.597904983058
-0.61785961309
-0.637423989749
-0.656585755753
-0.675332808121
-0.693653305813
-0.711535677209
-0.728968627421
-0.745941145424
-0.762442511011
-0.778462301567
-0.793990398648
-0.809016994375
-0.823532597628
-0.837528040042
-0.850994481795
-0.863923417193
-0.876306680044
-0.888136448814
-0.899405251566
-0.910105970685
-0.920231847366
-0.929776485888
-0.938733857654
-0.947098304995
-0.954864544747
-0.962027671586
-0.968583161129
-0.974526872787
-0.979855052384
-0.984564334529
-0.988651744738
-0.992114701314
-0.994951016981
-0.997158900261
-0.998736956606
-0.999684189283
-1.0
-0.999684189283
-0.998736956606
-0.997158900261
-0.994951016981
-0.992114701314
-0.988651744738
-0.984564334529
-0.979855052384
-0.974526872787
-0.968583161129
-0.962027671586
-0.954864544747
-0.947098304995
-0.938733857654
-0.929776485888
-0.920231847366
-0.910105970685
-0.899405251566
-0.888136448814
-0.876306680044
-0.863923417193
-0.850994481795
-0.837528040042
-0.823532597628
-0.809016994375
-0.793990398648
-0.778462301567
-0.762442511011
-0.745941145424
-0.728968627421
-0.711535677209
-0.693653305813
-0.675332808121
-0.656585755753
-0.637423989749
-0.61785961309
-0.597904983058
-0.577572703422
-0.556875616488
-0.535826794979
-0.514439533782
-0.492727341548
-0.470703932165
-0.44838321609
-0.425779291565
-0.402906435714
-0.379779095522
-0.356411878713
-0.332819544523
-0.309016994375
-0.28501926247
-0.26084150629
-0.236498997024
-0.212007109922
-0.187381314586
-0.162637165195
-0.137790290685
-0.112856384873
-0.0878511965507
-0.0627905195293
-0.0376901826699
-0.0125660398833
0.0125660398834
0.0376901826699
0.0627905195293
0.0878511965507
0.112856384873
0.137790290685
0.162637165195
0.187381314586
0.212007109922
0.236498997024
0.26084150629
0.28501926247
0.309016994375
0.332819544523
0.356411878713
0.379779095522
0.402906435714
0.425779291565
0.44838321609
0.470703932165
0.492727341548
0.514439533782
0.535826794979
0.556875616488
0.577572703422
0.597904983058
0.61785961309
0.637423989749
0.656585755753
0.675332808121
0.693653305813
0.711535677209
0.728968627421
0.745941145424
0.762442511011
0.778462301567
0.793990398648
0.809016994375
0.823532597628
0.837528040042
0.850994481795
0.863923417193
0.876306680044
0.888136448814
0.899405251566
0.910105970685
0.920231847366
0.929776485888
0.938733857654
0.947098304995
0.954864544747
0.962027671586
0.968583161129
0.974526872787
0.979855052384
0.984564334529
0.988651744738
0.992114701314
0.994951016981
0.997158900261
0.998736956606
0.999684189283
1.0
0.999684189283
0.998736956606
0.997158900261
0.994951016981
0.992114701314
0.988651744738
0.984564334529
0.979855052384
0.974526872787
0.968583161129
0.962027671586
0.954864544747
0.947098304995
0.938733857654
0.929776485888
0.920231847366
0.910105970685
0.899405251566
0.888136448814
0.876306680044
0.863923417193
0.850994481795
0.837528040042
0.823532597628
0.809016994375
0.793990398648
0.778462301567
0.762442511011
0.745941145424
0.728968627421
0.711535677209
0.693653305813
0.675332808121
0.656585755753
0.637423989749
0.61785961309
0.597904983058
0.577572703422
0.556875616488
0.535826794979
0.514439533782
0.492727341548
0.470703932165
0.44838321609
0.425779291565
0.402906435714
0.379779095522
0.356411878713
0.332819544523
0.309016994375
0.28501926247
0.26084150629
0.236498997024
0.212007109922
0.187381314586
0.162637165195
0.137790290685
0.112856384873
0.0878511965507
0.0627905195293
0.0376901826699
0.0125660398834
-0.0125660398833
-0.0376901826699
-0.0627905195293
-0.0878511965507
-0.112856384873
-0.137790290685
-0.162637165195
-0.187381314586
-0.212007109922
-0.236498997024
-0.26084150629
-0.28501926247
-0.309016994375
-0.332819544523
-0.356411878713
-0.379779095522
-0.402906435714
-0.425779291565
-0.44838321609
-0.470703932165
-0.492727341548
-0.514439533782
-0.535826794979
-0.556875616488
-0.577572703422
-0.597904983058
-0.61785961309
-0.637423989749
-0.656585755753
-0.675332808121
-0.693653305813
-0.711535677209
-0.728968627421
-0.745941145424
-0.762442511011
-0.778462301567
-0.793990398648
-0.809016994375
-0.823532597628
-0.837528040042
-0.850994481795
-0.863923417193
-0.876306680044
-0.888136448814
-0.899405251566
-0.910105970685
-0.920231847366
-0.929776485888
-0.938733857654
-0.947098304995
-0.954864544747
-0.962027671586
-0.968583161129
-0.974526872787
-0.979855052384
-0.984564334529
-0.988651744738
-0.992114701314
-0.994951016981
-0.997158900261
-0.998736956606
-0.999684189283
-1.0
-0.999684189283
-0.998736956606
-0.997158900261
-0.994951016981
-0.992114701314
-0.988651744738
-0.984564334529
-0.979855052384
-0.974526872787
-0.968583161129
-0.962027671586
-0.954864544747
-0.947098304995
-0.938733857654
-0.929776485888
-0.920231847366
-0.910105970685
-0.899405251566
-0.888136448814
-0.876306680044
-0.863923417193
-0.850994481795
-0.837528040042
-0.823532597628
-0.809016994375
-0.793990398648
-0.778462301567
-0.762442511011
-0.745941145424
-0.728968627421
-0.711535677209
-0.693653305813
-0.675332808121
-0.656585755753
-0.637423989749
-0.61785961309
-0.597904983058
-0.577572703422
-0.556875616488
-0.535826794979
-0.514439533782
-0.492727341548
-0.470703932165
-0.44838321609
-0.425779291565
-0.402906435714
-0.379779095522
-0.356411878713
-0.332819544523
-0.309016994375
-0.28501926247
-0.26084150629
-0.236498997024
-0.212007109922
-0.187381314586
-0.162637165195
-0.137790290685
-0.112856384873
-0.0878511965507
-0.0627905195293
-0.0376901826699
-0.0125660398834
0.0125660398834
0.0376901826699
0.0627905195293
0.0878511965508
0.112856384873
0.137790290685
0.162637165195
0.187381314586
0.212007109922
0.236498997024
0.26084150629
0.28501926247
0.309016994375
0.332819544523
0.356411878713
0.379779095522
0.402906435714
0.425779291565
0.44838321609
0.470703932165
0.492727341548
0.514439533782
0.535826794979
0.556875616488
0.577572703422
0.597904983058
0.61785961309
0.637423989749
0.656585755753
0.675332808121
0.693653305813
0.711535677209
0.728968627421
0.745941145424
0.762442511011
0.778462301567
0.793990398648
0.809016994375
0.823532597628
0.837528040042
0.850994481795
0.863923417193
0.876306680044
0.888136448814
0.899405251566
0.910105970685
0.920231847366
0.929776485888
0.938733857654
0.947098304995
0.954864544747
0.962027671586
0.968583161129
0.974526872787
0.979855052384
0.984564334529
0.988651744738
0.992114701314
0.994951016981
0.997158900261
0.998736956606
0.999684189283
1.0
0.999684189283
0.998736956606
0.997158900261
0.994951016981
0.992114701314
0.988651744738
0.984564334529
0.979855052384
0.974526872787
0.968583161129
0.962027671586
0.954864544747
0.947098304995
0.938733857654
0.929776485888
0.920231847366
0.910105970685
0.899405251566
0.888136448814
0.876306680044
0.863923417193
0.850994481795
0.837528040042
0.823532597628
0.809016994375
0.793990398648
0.778462301567
0.762442511011
0.745941145424
0.728968627421
0.711535677209
0.693653305813
0.675332808121
0.656585755753
0.637423989749
0.61785961309
0.597904983058
0.577572703422
0.556875616488
0.535826794979
0.514439533781
0.492727341548
0.470703932165
0.44838321609
0.425779291565
0.402906435714
0.379779095522
0.356411878713
0.332819544523
0.309016994375
0.28501926247
0.26084150629
0.236498997024
0.212007109922
0.187381314586
0.162637165195
0.137790290685
0.112856384873
0.0878511965507
0.0627905195293
0.0376901826699
0.0125660398833
-0.0125660398834
-0.0376901826699
-0.0627905195293
-0.0878511965507
-0.112856384873
-0.137790290685
-0.162637165195
-0.187381314586
-0.212007109922
-0.236498997024
-0.26084150629
-0.28501926247
-0.309016994375
-0.332819544523
-0.356411878713
-0.379779095522
-0.402906435714
-0.425779291565
-0.44838321609
-0.470703932165
-0.492727341548
-0.514439533782
-0.535826794979
-0.556875616488
-0.577572703422
-0.597904983058
-0.61785961309
-0.637423989749
-0.656585755753
-0.675332808121
-0.693653305813
-0.711535677209
-0.728968627421
-0.745941145424
-0.762442511011
-0.778462301567
-0.793990398648
-0.809016994375
-0.823532597628
-0.837528040042
-0.850994481795
-0.863923417193
-0.876306680044
-0.888136448814
-0.899405251566
-0.910105970685
-0.920231847366
-0.929776485888
-0.938733857654
-0.947098304995
-0.954864544747
-0.962027671586
-0.968583161129
-0.974526872787
-0.979855052384
-0.984564334529
-0.988651744738
-0.992114701314
-0.994951016981
-0.997158900261
-0.998736956606
-0.999684189283
-1.0
-0.999684189283
-0.998736956606
-0.997158900261
-0.994951016981
-0.992114701314
-0.988651744738
-0.984564334529
-0.979855052384
-0.974526872787
-0.968583161129
-0.962027671586
-0.954864544747
-0.947098304995
-0.938733857654
-0.929776485888
-0.920231847366
-0.910105970685
-0.899405251566
-0.888136448814
-0.876306680044
-0.863923417193
-0.850994481795
-0.837528040042
-0.823532597628
-0.809016994375
-0.793990398648
-0.778462301567
-0.762442511011
-0.745941145424
-0.728968627421
-0.711535677209
-0.693653305813
-0.675332808121
-0.656585755753
-0.637423989749
-0.61785961309
-0.597904983058
-0.577572703422
-0.556875616488
-0.535826794979
-0.514439533782
-0.492727341548
-0.470703932165
-0.44838321609
-0.425779291565
-0.402906435714
-0.379779095522
-0.356411878713
-0.332819544523
-0.309016994375
-0.28501926247
-0.26084150629
-0.236498997024
-0.212007109922
-0.187381314586
-0.162637165195
-0.137790290685
-0.112856384873
-0.0878511965507
-0.0627905195293
-0.0376901826699
-0.0125660398833
0.0125660398834
0.0376901826699
0.0627905195293
0.0878511965507
0.112856384873
0.137790290685
0.162637165195
0.187381314586
0.212007109922
0.236498997024
0.26084150629
0.28501926247
0.309016994375
0.332819544523
0.356411878713
0.379779095522
0.402906435714
0.425779291565
0.44838321609
0.470703932165
0.492727341548
0.514439533782
0.535826794979
0.556875616488
0.577572703422
0.597904983058
0.61785961309
0.637423989749
0.656585755753
0.675332808121
0.693653305813
0.711535677209
0.728968627421
0.745941145424
0.762442511011
0.778462301567
0.793990398648
0.809016994375
0.823532597628
0.837528040042
0.850994481795
0.863923417193
0.876306680044
0.888136448814
0.899405251566
0.910105970685
0.920231847366
0.929776485888
0.938733857654
0.947098304995
0.954864544747
0.962027671586
0.968583161129
0.974526872787
0.979855052384
0.984564334529
0.988651744738
0.992114701314
0.994951016981
0.997158900261
0.998736956606
0.999684189283
1.0
0.999684189283
0.998736956606
0.997158900261
0.994951016981
0.992114701314
0.988651744738
0.984564334529
0.979855052384
0.974526872787
0.968583161129
0.962027671586
0.954864544747
0.947098304995
0.938733857654
0.929776485888
0.920231847366
0.910105970685
0.899405251566
0.888136448814
0.876306680044
0.863923417193
0.850994481795
0.837528040042
0.823532597628
0.809016994375
0.793990398648
0.778462301567
0.762442511011
0.745941145424
0.728968627421
0.711535677209
0.693653305813
0.675332808121
0.656585755753
0.637423989749
0.61785961309
0.597904983058
0.577572703422
0.556875616488
0.535826794979
0.514439533782
0.492727341548
0.470703932165
0.44838321609
0.425779291565
0.402906435714
0.379779095522
0.356411878713
0.332819544523
0.309016994375
0.28501926247
0.26084150629
0.236498997024
0.212007109922
0.187381314586
0.162637165195
0.137790290685
0.112856384873
0.0878511965507
0.0627905195293
0.0376901826699
0.0125660398834
-0.0125660398833
-0.0376901826699
-0.0627905195293
-0.0878511965507
-0.112856384873
-0.137790290685
-0.162637165195
-0.187381314586
-0.212007109922
-0.236498997024
-0.26084150629
-0.28501926247
-0.309016994375
-0.332819544523
-0.356411878713
-0.379779095522
-0.402906435714
-0.425779291565
-0.44838321609
-0.470703932165
-0.492727341548
-0.514439533782
-0.535826794979
-0.556875616488
-0.577572703422
-0.597904983058
-0.61785961309
-0.637423989749
-0.656585755753
-0.675332808121
-0.693653305813
-0.711535677209
-0.728968627421
-0.745941145424
-0.762442511011
-0.778462301567
-0.793990398648
-0.809016994375
-0.823532597628
-0.837528040042
-0.850994481795
-0.863923417193
-0.876306680044
-0.888136448814
-0.899405251566
-0.910105970685
-0.920231847366
-0.929776485888
-0.938733857654
-0.947098304995
-0.954864544747
-0.962027671586
-0.968583161129
-0.974526872787
-0.979855052384
-0.984564334529
-0.988651744738
-0.992114701314
-0.994951016981
-0.997158900261
-0.998736956606
-0.999684189283
-1.0
-0.999684189283
-0.998736956606
-0.997158900261
-0.994951016981
-0.992114701314
-0.988651744738
-0.984564334529
-0.979855052384
-0.974526872787
-0.968583161129
-0.962027671586
-0.954864544747
-0.947098304995
-0.938733857654
-0.929776485888
-0.920231847366
-0.910105970685
-0.899405251566
-0.888136448814
-0.876306680044
-0.863923417193
-0.850994481795
-0.837528040042
-0.823532597628
-0.809016994375
-0.793990398648
-0.778462301567
-0.762442511011
-0.745941145424
-0.728968627421
-0.711535677209
-0.693653305813
-0.675332808121
-0.656585755753
-0.637423989749
-0.61785961309
-0.597904983058
-0.577572703422
-0.556875616488
-0.535826794979
-0.514439533782
-0.492727341548
-0.470703932165
-0.44838321609
-0.425779291565
-0.402906435714
-0.379779095522
-0.356411878713
-0.332819544523
-0.309016994375
-0.28501926247
-0.26084150629
-0.236498997024
-0.212007109922
-0.187381314586
-0.162637165195
-0.137790290685
-0.112856384873
-0.0878511965508
-0.0627905195293
-0.0376901826699
-0.0125660398834
0.0125660398834
0.0376901826699
0.0627905195293
0.0878511965507
0.112856384873
0.137790290685
0.162637165195
0.187381314586
0.212007109922
0.236498997024
0.26084150629
0.28501926247
0.309016994375
0.332819544523
0.356411878713
0.379779095522
0.402906435714
0.425779291565
0.44838321609
0.470703932165
0.492727341548
0.514439533782
0.535826794979
0.556875616488
0.577572703422
0.597904983058
0.61785961309
0.637423989749
0.656585755753
0.675332808121
0.693653305813
0.711535677209
0.728968627421
0.745941145424
0.762442511011
0.778462301567
0.793990398648
0.809016994375
0.823532597628
0.837528040042
0.850994481795
0.863923417193
0.876306680044
0.888136448814
0.899405251566
0.910105970685
0.920231847366
0.929776485888
0.938733857654
0.947098304995
0.954864544747
0.962027671586
0.968583161129
0.974526872787
0.979855052384
0.984564334529
0.988651744738
0.992114701314
0.994951016981
0.997158900261
0.998736956606
0.999684189283
1.0
0.999684189283
0.998736956606
0.997158900261
0.994951016981
0.992114701314
0.988651744738
0.984564334529
0.979855052384
0.974526872787
0.968583161129
0.962027671586
0.954864544747
0.947098304995
0.938733857654
0.929776485888
0.920231847366
0.910105970685
0.899405251566
0.888136448814
0.876306680044
0.863923417193
0.850994481795
0.837528040042
0.823532597628
0.809016994375
0.793990398648
0.778462301567
0.762442511011
0.745941145424
0.728968627421
0.711535677209
0.693653305813
0.675332808121
0.656585755753
0.637423989749
0.61785961309
0.597904983058
0.577572703422
0.556875616488
0.535826794979
0.514439533781
0.492727341548
0.470703932165
0.44838321609
0.425779291565
0.402906435714
0.379779095522
0.356411878713
0.332819544523
0.309016994375
0.28501926247
0.26084150629
0.236498997024
0.212007109922
0.187381314586
0.162637165195
0.137790290685
0.112856384873
0.0878511965507
0.0627905195293
0.0376901826699
0.0125660398834
-0.0125660398834
-0.03769018267
-0.0627905195293
-0.0878511965508
-0.112856384873
-0.137790290685
-0.162637165195
-0.187381314586
-0.212007109922
-0.236498997024
-0.26084150629
-0.28501926247
-0.309016994375
-0.332819544523
-0.356411878713
-0.379779095522
-0.402906435714
-0.425779291565
-0.44838321609
-0.470703932165
-0.492727341548
-0.514439533782
-0.535826794979
-0.556875616488
-0.577572703422
-0.597904983058
-0.61785961309
-0.637423989749
-0.656585755753
-0.675332808121
-0.693653305813
-0.711535677209
-0.728968627421
-0.745941145424
-0.762442511011
-0.778462301567
-0.793990398648
-0.809016994375
-0.823532597628
-0.837528040042
-0.850994481795
-0.863923417193
-0.876306680044
-0.888136448814
-0.899405251566
-0.910105970685
-0.920231847366
-0.929776485888
-0.938733857654
-0.947098304995
-0.954864544747
-0.962027671586
-0.968583161129
-0.974526872787
-0.979855052384
-0.984564334529
-0.988651744738
-0.992114701314
-0.994951016981
-0.997158900261
-0.998736956606
-0.999684189283
-1.0
-0.999684189283
-0.998736956606
-0.997158900261
-0.994951016981
-0.992114701314
-0.988651744738
-0.984564334529
-0.979855052384
-0.974526872787
-0.968583161129
-0.962027671586
-0.954864544747
-0.947098304995
-0.938733857654
-0.929776485888
-0.920231847366
-0.910105970685
-0.899405251566
-0.888136448814
-0.876306680044
-0.863923417193
-0.850994481795
-0.837528040042
-0.823532597628
-0.809016994375
-0.793990398648
-0.778462301567
-0.762442511011
-0.745941145424
-0.728968627421
-0.711535677209
-0.693653305813
-0.675332808121
-0.656585755753
-0.637423989749
-0.61785961309
-0.597904983058
-0.577572703422
-0.556875616488
-0.535826794979
-0.514439533782
-0.492727341548
-0.470703932165
-0.44838321609
-0.425779291565
-0.402906435714
-0.379779095522
-0.356411878713
-0.332819544523
-0.309016994375
-0.28501926247
-0.26084150629
-0.236498997024
-0.212007109922
-0.187381314586
-0.162637165195
-0.137790290685
-0.112856384873
-0.0878511965507
-0.0627905195293
-0.0376901826699
-0.0125660398833
0.0125660398833
0.0376901826699
0.0627905195293
0.0878511965507
0.112856384873
0.137790290685
0.162637165195
0.187381314586
0.212007109922
0.236498997024
0.26084150629
0.28501926247
0.309016994375
0.332819544523
0.356411878713
0.379779095522
0.402906435714
0.425779291565
0.44838321609
0.470703932165
0.492727341548
0.514439533782
0.535826794979
0.556875616488
0.577572703422
0.597904983058
0.61785961309
0.637423989749
0.656585755753
0.675332808121
0.693653305813
0.711535677209
0.728968627421
0.745941145424
0.762442511011
0.778462301567
0.793990398648
0.809016994375
0.823532597628
0.837528040042
0.850994481795
0.863923417193
0.876306680044
0.888136448814
0.899405251566
0.910105970685
0.920231847366
0.929776485888
0.938733857654
0.947098304995
0.954864544747
0.962027671586
0.968583161129
0.974526872787
0.979855052384
0.984564334529
0.988651744738
0.992114701314
0.994951016981
0.997158900261
0.998736956606
0.999684189283
1.0
0.999684189283
0.998736956606
0.997158900261
0.994951016981
0.992114701314
0.988651744738
0.984564334529
0.979855052384
0.974526872787
0.968583161129
0.962027671586
0.954864544747
0.947098304995
0.938733857654
0.929776485888
0.920231847366
0.910105970685
0.899405251566
0.888136448814
0.876306680044
0.863923417193
0.850994481795
0.837528040042
0.823532597628
0.809016994375
0.793990398648
0.778462301567
0.762442511011
0.745941145424
0.728968627421
0.711535677209
0.693653305813
0.675332808121
0.656585755753
0.637423989749
0.61785961309
0.597904983058
0.577572703422
0.556875616488
0.535826794979
0.514439533781
0.492727341548
0.470703932165
0.44838321609
0.425779291565
0.402906435714
0.379779095522
0.356411878713
0.332819544523
0.309016994375
0.28501926247
0.26084150629
0.236498997024
0.212007109922
0.187381314586
0.162637165195
0.137790290685
0.112856384873
0.0878511965507
0.0627905195293
0.0376901826699
0.0125660398834
-0.0125660398834
-0.0376901826699
-0.0627905195293
-0.0878511965507
-0.112856384873
-0.137790290685
-0.162637165195
-0.187381314586
-0.212007109922
-0.236498997024
-0.26084150629
-0.28501926247
-0.309016994375
-0.332819544523
-0.356411878713
-0.379779095522
-0.402906435714
-0.425779291565
-0.44838321609
-0.470703932165
-0.492727341548
-0.514439533781
-0.535826794979
-0.556875616488
-0.577572703422
-0.597904983058
-0.61785961309
-0.637423989749
-0.656585755753
-0.675332808121
-0.693653305813
-0.711535677209
-0.728968627421
-0.745941145424
-0.762442511011
-0.778462301567
-0.793990398648
-0.809016994375
-0.823532597628
-0.837528040042
-0.850994481795
-0.863923417193
-0.876306680044
-0.888136448814
-0.899405251566
-0.910105970685
-0.920231847366
-0.929776485888
-0.938733857654
-0.947098304995
-0.954864544747
-0.962027671586
-0.968583161129
-0.974526872787
-0.979855052384
-0.984564334529
-0.988651744738
-0.992114701314
-0.994951016981
-0.997158900261
-0.998736956606
-0.999684189283
-1.0
-0.999684189283
-0.998736956606
-0.997158900261
-0.994951016981
-0.992114701314
-0.988651744738
-0.984564334529
-0.979855052384
-0.974526872787
-0.968583161129
-0.962027671586
-0.954864544747
-0.947098304995
-0.938733857654
-0.929776485888
-0.920231847366
-0.910105970685
-0.899405251566
-0.888136448814
-0.876306680044
-0.863923417193
-0.850994481795
-0.837528040042
-0.823532597628
-0.809016994375
-0.793990398648
-0.778462301567
-0.762442511011
-0.745941145424
-0.728968627421
-0.711535677209
-0.693653305813
-0.675332808121
-0.656585755753
-0.637423989749
-0.61785961309
-0.597904983058
-0.577572703422
-0.556875616488
-0.535826794979
-0.514439533782
-0.492727341548
-0.470703932165
-0.44838321609
-0.425779291565
-0.402906435714
-0.379779095522
-0.356411878713
-0.332819544523
-0.309016994375
-0.28501926247
-0.26084150629
-0.236498997024
-0.212007109922
-0.187381314586
-0.162637165195
-0.137790290685
-0.112856384873
-0.0878511965507
-0.0627905195293
-0.0376901826699
-0.0125660398833
0.0125660398834
0.0376901826699
0.0627905195293
0.0878511965508
0.112856384873
0.137790290685
0.162637165195
0.187381314586
0.212007109922
0.236498997024
0.26084150629
0.28501926247
0.309016994375
0.332819544523
0.356411878713
0.379779095522
0.402906435714
0.425779291565
0.44838321609
0.470703932165
0.492727341548
0.514439533782
0.535826794979
0.556875616488
0.577572703422
0.597904983058
0.61785961309
0.637423989749
0.656585755753
0.675332808121
0.693653305813
0.711535677209
0.728968627421
0.745941145424
0.762442511011
0.778462301567
0.793990398648
0.809016994375
0.823532597628
0.837528040042
0.850994481795
0.863923417193
0.876306680044
0.888136448814
0.899405251566
0.910105970685
0.920231847366
0.929776485888
0.938733857654
0.947098304995
0.954864544747
0.962027671586
0.968583161129
0.974526872787
0.979855052384
0.984564334529
0.988651744738
0.992114701314
0.994951016981
0.997158900261
0.998736956606
0.999684189283
1.0
0.999684189283
0.998736956606
0.997158900261
0.994951016981
0.992114701314
0.988651744738
0.984564334529
0.979855052384
0.974526872787
0.968583161129
0.962027671586
0.954864544747
0.947098304995
0.938733857654
0.929776485888
0.920231847366
0.910105970685
0.899405251566
0.888136448814
0.876306680044
0.863923417193
0.850994481795
0.837528040042
0.823532597628
0.809016994375
0.793990398648
0.778462301567
0.762442511011
0.745941145424
0.728968627421
0.711535677209
0.693653305813
0.675332808121
0.656585755753
0.637423989749
0.61785961309
0.597904983058
0.577572703422
0.556875616488
0.535826794979
0.514439533782
0.492727341548
0.470703932165
0.44838321609
0.425779291565
0.402906435714
0.379779095522
0.356411878713
0.332819544523
0.309016994375
0.28501926247
0.26084150629
0.236498997024
0.212007109922
0.187381314586
0.162637165195
0.137790290685
0.112856384873
0.0878511965507
0.0627905195293
0.0376901826699
0.0125660398833
-0.0125660398834
-0.0376901826699
-0.0627905195293
-0.0878511965507
-0.112856384873
-0.137790290685
-0.162637165195
-0.187381314586
-0.212007109922
-0.236498997024
-0.26084150629
-0.28501926247
-0.309016994375
-0.332819544523
-0.356411878713
-0.379779095522
-0.402906435714
-0.425779291565
-0.44838321609
-0.470703932165
-0.492727341548
-0.514439533782
-0.535826794979
-0.556875616488
-0.577572703422
-0.597904983058
-0.61785961309
-0.637423989749
-0.656585755753
-0.675332808121
-0.693653305813
-0.711535677209
-0.728968627421
-0.745941145424
-0.762442511011
-0.778462301567
-0.793990398648
-0.809016994375
-0.823532597628
-0.837528040042
-0.850994481795
-0.863923417193
-0.876306680044
-0.888136448814
-0.899405251566
-0.910105970685
-0.920231847366
-0.929776485888
-0.938733857654
-0.947098304995
-0.954864544747
-0.962027671586
-0.968583161129
-0.974526872787
-0.979855052384
-0.984564334529
-0.988651744738
-0.992114701314
-0.994951016981
-0.997158900261
-0.998736956606
-0.999684189283
-1.0
-0.999684189283
-0.998736956606
-0.997158900261
-0.994951016981
-0.992114701314
-0.988651744738
-0.984564334529
-0.979855052384
-0.974526872787
-0.968583161129
-0.962027671586
-0.954864544747
-0.947098304995
-0.938733857654
-0.929776485888
-0.920231847366
-0.910105970685
-0.899405251566
-0.888136448814
-0.876306680044
-0.863923417193
-0.850994481795
-0.837528040042
-0.823532597628
-0.809016994375
-0.793990398648
-0.778462301567
-0.762442511011
-0.745941145424
-0.728968627421
-0.711535677209
-0.693653305813
-0.675332808121
-0.656585755753
-0.637423989749
-0.61785961309
-0.597904983058
-0.577572703422
-0.556875616488
-0.535826794979
-0.514439533781
-0.492727341548
-0.470703932165
-0.44838321609
-0.425779291565
-0.402906435714
-0.379779095522
-0.356411878713
-0.332819544523
-0.309016994375
-0.28501926247
-0.26084150629
-0.236498997024
-0.212007109922
-0.187381314586
-0.162637165195
-0.137790290685
-0.112856384873
-0.0878511965507
-0.0627905195293
-0.0376901826699
-0.0125660398834
0.0125660398834
0.0376901826699
0.0627905195293
0.0878511965508
0.112856384873
0.137790290685
0.162637165195
0.187381314586
0.212007109922
0.236498997024
0.26084150629
0.28501926247
0.309016994375
0.332819544523
0.356411878713
0.379779095522
0.402906435714
0.425779291565
0.44838321609
0.470703932165
0.492727341548
0.514439533782
0.535826794979
0.556875616488
0.577572703422
0.597904983058
0.61785961309
0.637423989749
0.656585755753
0.675332808121
0.693653305813
0.711535677209
0.728968627421
0.745941145424
0.762442511011
0.778462301567
0.793990398648
0.809016994375
0.823532597628
0.837528040042
0.850994481795
0.863923417193
0.876306680044
0.888136448814
0.899405251566
0.910105970685
0.920231847366
0.929776485888
0.938733857654
0.947098304995
0.954864544747
0.962027671586
0.968583161129
0.974526872787
0.979855052384
0.984564334529
0.988651744738
0.992114701314
0.994951016981
0.997158900261
0.998736956606
0.999684189283
1.0
0.999684189283
0.998736956606
0.997158900261
0.994951016981
0.992114701314
0.988651744738
0.984564334529
0.979855052384
0.974526872787
0.968583161129
0.962027671586
0.954864544747
0.947098304995
0.938733857654
0.929776485888
0.920231847366
0.910105970685
0.899405251566
0.888136448814
0.876306680044
0.863923417193
0.850994481795
0.837528040042
0.823532597628
0.809016994375
0.793990398648
0.778462301567
0.762442511011
0.745941145424
0.728968627421
0.711535677209
0.693653305813
0.675332808121
0.656585755753
0.637423989749
0.61785961309
0.597904983058
0.577572703422
0.556875616488
0.535826794979
0.514439533782
0.492727341548
0.470703932165
0.44838321609
0.425779291565
0.402906435714
0.379779095522
0.356411878713
0.332819544523
0.309016994375
0.28501926247
0.26084150629
0.236498997024
0.212007109922
0.187381314586
0.162637165195
0.137790290685
0.112856384873
0.0878511965507
0.0627905195293
0.0376901826699
0.0125660398833
-0.0125660398833
-0.0376901826699
-0.0627905195293
-0.0878511965507
-0.112856384873
-0.137790290685
-0.162637165195
-0.187381314586
-0.212007109922
-0.236498997024
-0.26084150629
-0.28501926247
-0.309016994375
-0.332819544523
-0.356411878713
-0.379779095522
-0.402906435714
-0.425779291565
-0.44838321609
-0.470703932165
-0.492727341548
-0.514439533782
-0.535826794979
-0.556875616488
-0.577572703422
-0.597904983058
-0.61785961309
-0.637423989749
-0.656585755753
-0.675332808121
-0.693653305813
-0.711535677209
-0.728968627421
-0.745941145424
-0.762442511011
-0.778462301567
-0.793990398648
-0.809016994375
-0.823532597628
-0.837528040042
-0.850994481795
-0.863923417193
-0.876306680044
-0.888136448814
-0.899405251566
-0.910105970685
-0.920231847366
-0.929776485888
-0.938733857654
-0.947098304995
-0.954864544747
-0.962027671586
-0.968583161129
-0.974526872787
-0.979855052384
-0.984564334529
-0.988651744738
-0.992114701314
-0.994951016981
-0.997158900261
-0.998736956606
-0.999684189283
-1.0
-0.999684189283
-0.998736956606
-0.997158900261
-0.994951016981
-0.992114701314
-0.988651744738
-0.984564334529
-0.979855052384
-0.974526872787
-0.968583161129
-0.962027671586
-0.954864544747
-0.947098304995
-0.938733857654
-0.929776485888
-0.920231847366
-0.910105970685
-0.899405251566
-0.888136448814
-0.876306680044
-0.863923417193
-0.850994481795
-0.837528040042
-0.823532597628
-0.809016994375
-0.793990398648
-0.778462301567
-0.762442511011
-0.745941145424
-0.728968627421
-0.711535677209
-0.693653305813
-0.675332808121
-0.656585755753
-0.637423989749
-0.61785961309
-0.597904983058
-0.577572703422
-0.556875616488
-0.535826794979
-0.514439533782
-0.492727341548
-0.470703932165
-0.44838321609
-0.425779291565
-0.402906435714
-0.379779095522
-0.356411878713
-0.332819544523
-0.309016994375
-0.28501926247
-0.26084150629
-0.236498997024
-0.212007109922
-0.187381314586
-0.162637165195
-0.137790290685
-0.112856384873
-0.0878511965508
-0.0627905195293
-0.0376901826699
-0.0125660398834
0.0125660398834
0.0376901826699
0.0627905195293
0.0878511965507
0.112856384873
0.137790290685
0.162637165195
0.187381314586
0.212007109922
0.236498997024
0.26084150629
0.28501926247
0.309016994375
0.332819544523
0.356411878713
0.379779095522
0.402906435714
0.425779291565
0.44838321609
0.470703932165
0.492727341548
0.514439533782
0.535826794979
0.556875616488
0.577572703422
0.597904983058
0.61785961309
0.637423989749
0.656585755753
0.675332808121
0.693653305813
0.711535677209
0.728968627421
0.745941145424
0.762442511011
0.778462301567
0.793990398648
0.809016994375
0.823532597628
0.837528040042
0.850994481795
0.863923417193
0.876306680044
0.888136448814
0.899405251566
0.910105970685
0.920231847366
0.929776485888
0.938733857654
0.947098304995
0.954864544747
0.962027671586
0.968583161129
0.974526872787
0.979855052384
0.984564334529
0.988651744738
0.992114701314
0.994951016981
0.997158900261
0.998736956606
0.999684189283
1.0
0.999684189283
0.998736956606
0.997158900261
0.994951016981
0.992114701314
0.988651744738
0.984564334529
0.979855052384
0.974526872787
0.968583161129
0.962027671586
0.954864544747
0.947098304995
0.938733857654
0.929776485888
0.920231847366
0.910105970685
0.899405251566
0.888136448814
0.876306680044
0.863923417193
0.850994481795
0.837528040042
0.823532597628
0.809016994375
0.793990398648
0.778462301567
0.762442511011
0.745941145424
0.728968627421
0.711535677209
0.693653305813
0.675332808121
0.656585755753
0.637423989749
0.61785961309
0.597904983058
0.577572703422
0.556875616488
0.535826794979
0.514439533781
0.492727341548
0.470703932165
0.44838321609
0.425779291565
0.402906435714
0.379779095522
0.356411878713
0.332819544523
0.309016994375
0.28501926247
0.26084150629
0.236498997024
0.212007109922
0.187381314586
0.162637165195
0.137790290685
0.112856384873
0.0878511965507
0.0627905195293
0.0376901826699
0.0125660398834
-0.0125660398834
-0.0376901826699
-0.0627905195293
-0.0878511965508
-0.112856384873
-0.137790290685
-0.162637165195
-0.187381314586
-0.212007109922
-0.236498997024
-0.26084150629
-0.28501926247
-0.309016994375
-0.332819544523
-0.356411878713
-0.379779095522
-0.402906435714
-0.425779291565
-0.44838321609
-0.470703932165
-0.492727341548
-0.514439533782
-0.535826794979
-0.556875616488
-0.577572703422
-0.597904983058
-0.61785961309
-0.637423989749
-0.656585755753
-0.675332808121
-0.693653305813
-0.711535677209
-0.728968627421
-0.745941145424
-0.762442511011
-0.778462301567
-0.793990398648
-0.809016994375
-0.823532597628
-0.837528040042
-0.850994481795
-0.863923417193
-0.876306680044
-0.888136448814
-0.899405251566
-0.910105970685
-0.920231847366
-0.929776485888
-0.938733857654
-0.947098304995
-0.954864544747
-0.962027671586
-0.968583161129
-0.974526872787
-0.979855052384
-0.984564334529
-0.988651744738
-0.992114701314
-0.994951016981
-0.997158900261
-0.998736956606
-0.999684189283
-1.0
-0.999684189283
-0.998736956606
-0.997158900261
-0.994951016981
-0.992114701314
-0.988651744738
-0.984564334529
-0.979855052384
-0.974526872787
-0.968583161129
-0.962027671586
-0.954864544747
-0.947098304995
-0.938733857654
-0.929776485888
-0.920231847366
-0.910105970685
-0.899405251566
-0.888136448814
-0.876306680044
-0.863923417193
-0.850994481795
-0.837528040042
-0.823532597628
-0.809016994375
-0.793990398648
-0.778462301567
-0.762442511011
-0.745941145424
-0.728968627421
-0.711535677209
-0.693653305813
-0.675332808121
-0.656585755753
-0.637423989749
-0.61785961309
-0.597904983058
-0.577572703422
-0.556875616488
-0.535826794979
-0.514439533782
-0.492727341548
-0.470703932165
-0.44838321609
-0.425779291565
-0.402906435714
-0.379779095522
-0.356411878713
-0.332819544523
-0.309016994375
-0.28501926247
-0.26084150629
-0.236498997024
-0.212007109922
-0.187381314586
-0.162637165195
-0.137790290685
-0.112856384873
-0.0878511965507
-0.0627905195293
-0.0376901826699
-0.0125660398833
0.0125660398833
0.0376901826699
0.0627905195293
0.0878511965507
0.112856384873
0.137790290685
0.162637165195
0.187381314586
0.212007109922
0.236498997024
0.26084150629
0.28501926247
0.309016994375
0.332819544523
0.356411878713
0.379779095522
0.402906435714
0.425779291565
0.44838321609
0.470703932165
0.492727341548
0.514439533782
0.535826794979
0.556875616488
0.577572703422
0.597904983058
0.61785961309
0.637423989749
0.656585755753
0.675332808121
0.693653305813
0.711535677209
0.728968627421
0.745941145424
0.762442511011
0.778462301567
0.793990398648
0.809016994375
0.823532597628
0.837528040042
0.850994481795
0.863923417193
0.876306680044
0.888136448814
0.899405251566
0.910105970685
0.920231847366
0.929776485888
0.938733857654
0.947098304995
0.954864544747
0.962027671586
0.968583161129
0.974526872787
0.979855052384
0.984564334529
0.988651744738
0.992114701314
0.994951016981
0.997158900261
0.998736956606
0.999684189283
1.0
0.999684189283
0.998736956606
0.997158900261
0.994951016981
0.992114701314
0.988651744738
0.984564334529
0.979855052384
0.974526872787
0.968583161129
0.962027671586
0.954864544747
0.947098304995
0.938733857654
0.929776485888
0.920231847366
0.910105970685
0.899405251566
0.888136448814
0.876306680044
0.863923417193
0.850994481795
0.837528040042
0.823532597628
0.809016994375
0.793990398648
0.778462301567
0.762442511011
0.745941145424
0.728968627421
0.711535677209
0.693653305813
0.675332808121
0.656585755753
0.637423989749
0.61785961309
0.597904983058
0.577572703422
0.556875616488
0.535826794979
0.514439533781
0.492727341548
0.470703932165
0.44838321609
0.425779291565
0.402906435714
0.379779095522
0.356411878713
0.332819544523
0.309016994375
0.28501926247
0.26084150629
0.236498997024
0.212007109922
0.187381314586
0.162637165195
0.137790290685
0.112856384873
0.0878511965507
0.0627905195293
0.0376901826699
0.0125660398834
-0.0125660398834
-0.0376901826699
-0.0627905195293
-0.0878511965507
-0.112856384873
-0.137790290685
-0.162637165195
-0.187381314586
-0.212007109922
-0.236498997024
-0.26084150629
-0.28501926247
-0.309016994375
-0.332819544523
-0.356411878713
-0.379779095522
-0.402906435714
-0.425779291565
-0.44838321609
-0.470703932165
-0.492727341548
-0.514439533781
-0.535826794979
-0.556875616488
-0.577572703422
-0.597904983058
-0.61785961309
-0.637423989749
-0.656585755753
-0.675332808121
-0.693653305813
-0.711535677209
-0.728968627421
-0.745941145424
-0.762442511011
-0.778462301567
-0.793990398648
-0.809016994375
-0.823532597628
-0.837528040042
-0.850994481795
-0.863923417193
-0.876306680044
-0.888136448814
-0.899405251566
-0.910105970685
-0.920231847366
-0.929776485888
-0.938733857654
-0.947098304995
-0.954864544747
-0.962027671586
-0.968583161129
-0.974526872787
-0.979855052384
-0.984564334529
-0.988651744738
-0.992114701314
-0.994951016981
-0.997158900261
-0.998736956606
-0.999684189283
-1.0
-0.999684189283
-0.998736956606
-0.997158900261
-0.994951016981
-0.992114701314
-0.988651744738
-0.984564334529
-0.979855052384
-0.974526872787
-0.968583161129
-0.962027671586
-0.954864544747
-0.947098304995
-0.938733857654
-0.929776485888
-0.920231847366
-0.910105970685
-0.899405251566
-0.888136448814
-0.876306680044
-0.863923417193
-0.850994481795
-0.837528040042
-0.823532597628
-0.809016994375
-0.793990398648
-0.778462301567
-0.762442511011
-0.745941145424
-0.728968627421
-0.711535677209
-0.693653305813
-0.675332808121
-0.656585755753
-0.637423989749
-0.61785961309
-0.597904983058
-0.577572703422
-0.556875616488
-0.535826794979
-0.514439533782
-0.492727341548
-0.470703932165
-0.44838321609
-0.425779291565
-0.402906435714
-0.379779095522
-0.356411878713
-0.332819544523
-0.309016994375
-0.28501926247
-0.26084150629
-0.236498997024
-0.212007109922
-0.187381314586
-0.162637165195
-0.137790290685
-0.112856384873
-0.0878511965507
-0.0627905195293
-0.0376901826699
-0.0125660398833
0.0125660398834
0.0376901826699
0.0627905195293
0.0878511965508
0.112856384873
0.137790290685
0.162637165195
0.187381314586
0.212007109922
0.236498997024
0.26084150629
0.28501926247
0.309016994375
0.332819544523
0.356411878713
0.379779095522
0.402906435714
0.425779291565
0.44838321609
0.470703932165
0.492727341548
0.514439533782
0.535826794979
0.556875616488
0.577572703422
0.597904983058
0.61785961309
0.637423989749
0.656585755753
0.675332808121
0.693653305813
0.711535677209
0.728968627421
0.745941145424
0.762442511011
0.778462301567
0.793990398648
0.809016994375
0.823532597628
0.837528040042
0.850994481795
0.863923417193
0.876306680044
0.888136448814
0.899405251566
0.910105970685
0.920231847366
0.929776485888
0.938733857654
0.947098304995
0.954864544747
0.962027671586
0.968583161129
0.974526872787
0.979855052384
0.984564334529
0.988651744738
0.992114701314
0.994951016981
0.997158900261
0.998736956606
0.999684189283
1.0
0.999684189283
0.998736956606
0.997158900261
0.994951016981
0.992114701314
0.988651744738
0.984564334529
0.979855052384
0.974526872787
0.968583161129
0.962027671586
0.954864544747
0.947098304995
0.938733857654
0.929776485888
0.920231847366
0.910105970685
0.899405251566
0.888136448814
0.876306680044
0.863923417193
0.850994481795
0.837528040042
0.823532597628
0.809016994375
0.793990398648
0.778462301567
0.762442511011
0.745941145424
0.728968627421
0.711535677209
0.693653305813
0.675332808121
0.656585755753
0.637423989749
0.61785961309
0.597904983058
0.577572703422
0.556875616488
0.535826794979
0.514439533782
0.492727341548
0.470703932165
0.44838321609
0.425779291565
0.402906435714
0.379779095522
0.356411878713
0.332819544523
0.309016994375
0.28501926247
0.26084150629
0.236498997024
0.212007109922
0.187381314586
0.162637165195
0.137790290685
0.112856384873
0.0878511965507
0.0627905195293
0.0376901826699
0.0125660398833
-0.0125660398834
-0.0376901826699
-0.0627905195293
-0.0878511965507
-0.112856384873
-0.137790290685
-0.162637165195
-0.187381314586
-0.212007109922
-0.236498997024
-0.26084150629
-0.28501926247
-0.309016994375
-0.332819544523
-0.356411878713
-0.379779095522
-0.402906435714
-0.425779291565
-0.44838321609
-0.470703932165
-0.492727341548
-0.514439533782
-0.535826794979
-0.556875616488
-0.577572703422
-0.597904983058
-0.61785961309
-0.637423989749
-0.656585755753
-0.675332808121
-0.693653305813
-0.711535677209
-0.728968627421
-0.745941145424
-0.762442511011
-0.778462301567
-0.793990398648
-0.809016994375
-0.823532597628
-0.837528040042
-0.850994481795
-0.863923417193
-0.876306680044
-0.888136448814
-0.899405251566
-0.910105970685
-0.920231847366
-0.929776485888
-0.938733857654
-0.947098304995
-0.954864544747
-0.962027671586
-0.968583161129
-0.974526872787
-0.979855052384
-0.984564334529
-0.988651744738
-0.992114701314
-0.994951016981
-0.997158900261
-0.998736956606
-0.999684189283
-1.0
-0.999684189283
-0.998736956606
-0.997158900261
-0.994951016981
-0.992114701314
-0.988651744738
-0.984564334529
-0.979855052384
-0.974526872787
-0.968583161129
-0.962027671586
-0.954864544747
-0.947098304995
-0.938733857654
-0.929776485888
-0.920231847366
-0.910105970685
-0.899405251566
-0.888136448814
-0.876306680044
-0.863923417193
-0.850994481795
-0.837528040042
-0.823532597628
-0.809016994375
-0.793990398648
-0.778462301567
-0.762442511011
-0.745941145424
-0.728968627421
-0.711535677209
-0.693653305813
-0.675332808121
-0.656585755753
-0.637423989749
-0.61785961309
-0.597904983058
-0.577572703422
-0.556875616488
-0.535826794979
-0.514439533781
-0.492727341548
-0.470703932165
-0.44838321609
-0.425779291565
-0.402906435714
-0.379779095522
-0.356411878713
-0.332819544523
-0.309016994375
-0.28501926247
-0.26084150629
-0.236498997024
-0.212007109922
-0.187381314586
-0.162637165195
-0.137790290685
-0.112856384873
-0.0878511965507
-0.0627905195293
-0.0376901826699
-0.0125660398834
0.0125660398834
0.03769018267
0.0627905195293
0.0878511965508
0.112856384873
0.137790290685
0.162637165195
0.187381314586
0.212007109922
0.236498997024
0.26084150629
0.28501926247
0.309016994375
0.332819544523
0.356411878713
0.379779095522
0.402906435714
0.425779291565
0.44838321609
0.470703932165
0.492727341548
0.514439533782
0.535826794979
0.556875616488
0.577572703422
0.597904983058
0.61785961309
0.637423989749
0.656585755753
0.675332808121
0.693653305813
0.711535677209
0.728968627421
0.745941145424
0.762442511011
0.778462301567
0.793990398648
0.809016994375
0.823532597628
0.837528040042
0.850994481795
0.863923417193
0.876306680044
0.888136448814
0.899405251566
0.910105970685
0.920231847366
0.929776485888
0.938733857654
0.947098304995
0.954864544747
0.962027671586
0.968583161129
0.974526872787
0.979855052384
0.984564334529
0.988651744738
0.992114701314
0.994951016981
0.997158900261
0.998736956606
0.999684189283
1.0
0.999684189283
0.998736956606
0.997158900261
0.994951016981
0.992114701314
0.988651744738
0.984564334529
0.979855052384
0.974526872787
0.968583161129
0.962027671586
0.954864544747
0.947098304995
0.938733857654
0.929776485888
0.920231847366
0.910105970685
0.899405251566
0.888136448814
0.876306680044
0.863923417193
0.850994481795
0.837528040042
0.823532597628
0.809016994375
0.793990398648
0.778462301567
0.762442511011
0.745941145424
0.728968627421
0.711535677209
0.693653305813
0.675332808121
0.656585755753
0.637423989749
0.61785961309
0.597904983058
0.577572703422
0.556875616488
0.535826794979
0.514439533782
0.492727341548
0.470703932165
0.44838321609
0.425779291565
0.402906435714
0.379779095522
0.356411878713
0.332819544523
0.309016994375
0.28501926247
0.26084150629
0.236498997024
0.212007109922
0.187381314586
0.162637165195
0.137790290685
0.112856384873
0.0878511965507
0.0627905195293
0.0376901826699
0.0125660398833
-0.0125660398833
-0.0376901826699
-0.0627905195293
-0.0878511965507
-0.112856384873
-0.137790290685
-0.162637165195
-0.187381314586
-0.212007109922
-0.236498997024
-0.26084150629
-0.28501926247
-0.309016994375
-0.332819544523
-0.356411878713
-0.379779095522
-0.402906435714
-0.425779291565
-0.44838321609
-0.470703932165
-0.492727341548
-0.514439533782
-0.535826794979
-0.556875616488
-0.577572703422
-0.597904983058
-0.61785961309
-0.637423989749
-0.656585755753
-0.675332808121
-0.693653305813
-0.711535677209
-0.728968627421
-0.745941145424
-0.762442511011
-0.778462301567
-0.793990398648
-0.809016994375
-0.823532597628
-0.837528040042
-0.850994481795
-0.863923417193
-0.876306680044
-0.888136448814
-0.899405251566
-0.910105970685
-0.920231847366
-0.929776485888
-0.938733857654
-0.947098304995
-0.954864544747
-0.962027671586
-0.968583161129
-0.974526872787
-0.979855052384
-0.984564334529
-0.988651744738
-0.992114701314
-0.994951016981
-0.997158900261
-0.998736956606
-0.999684189283
-1.0
-0.999684189283
-0.998736956606
-0.997158900261
-0.994951016981
-0.992114701314
-0.988651744738
-0.984564334529
-0.979855052384
-0.974526872787
-0.968583161129
-0.962027671586
-0.954864544747
-0.947098304995
-0.938733857654
-0.929776485888
-0.920231847366
-0.910105970685
-0.899405251566
-0.888136448814
-0.876306680044
-0.863923417193
-0.850994481795
-0.837528040042
-0.823532597628
-0.809016994375
-0.793990398648
-0.778462301567
-0.762442511011
-0.745941145424
-0.728968627421
-0.711535677209
-0.693653305813
-0.675332808121
-0.656585755753
-0.637423989749
-0.61785961309
-0.597904983058
-0.577572703422
-0.556875616488
-0.535826794979
-0.514439533781
-0.492727341548
-0.470703932165
-0.44838321609
-0.425779291565
-0.402906435714
-0.379779095522
-0.356411878713
-0.332819544523
-0.309016994375
-0.28501926247
-0.26084150629
-0.236498997024
-0.212007109922
-0.187381314586
-0.162637165195
-0.137790290685
-0.112856384873
-0.0878511965507
-0.0627905195293
-0.0376901826699
-0.0125660398834
0.0125660398834
0.0376901826699
0.0627905195293
0.0878511965507
0.112856384873
0.137790290685
0.162637165195
0.187381314586
0.212007109922
0.236498997024
0.26084150629
0.28501926247
0.309016994375
0.332819544523
0.356411878713
0.379779095522
0.402906435714
0.425779291565
0.44838321609
0.470703932165
0.492727341548
0.514439533782
0.535826794979
0.556875616488
0.577572703422
0.597904983058
0.61785961309
0.637423989749
0.656585755753
0.675332808121
0.693653305813
0.711535677209
0.728968627421
0.745941145424
0.762442511011
0.778462301567
0.793990398648
0.809016994375
0.823532597628
0.837528040042
0.850994481795
0.863923417193
0.876306680044
0.888136448814
0.899405251566
0.910105970685
0.920231847366
0.929776485888
0.938733857654
0.947098304995
0.954864544747
0.962027671586
0.968583161129
0.974526872787
0.979855052384
0.984564334529
0.988651744738
0.992114701314
0.994951016981
0.997158900261
0.998736956606
0.999684189283
1.0
0.999684189283
0.998736956606
0.997158900261
0.994951016981
0.992114701314
0.988651744738
0.984564334529
0.979855052384
0.974526872787
0.968583161129
0.962027671586
0.954864544747
0.947098304995
0.938733857654
0.929776485888
0.920231847366
0.910105970685
0.899405251566
0.888136448814
0.876306680044
0.863923417193
0.850994481795
0.837528040042
0.823532597628
0.809016994375
0.793990398648
0.778462301567
0.762442511011
0.745941145424
0.728968627421
0.711535677209
0.693653305813
0.675332808121
0.656585755753
0.637423989749
0.61785961309
0.597904983058
0.577572703422
0.556875616488
0.535826794979
0.514439533782
0.492727341548
0.470703932165
0.44838321609
0.425779291565
0.402906435714
0.379779095522
0.356411878713
0.332819544523
0.309016994375
0.28501926247
0.26084150629
0.236498997024
0.212007109922
0.187381314586
0.162637165195
0.137790290685
0.112856384873
0.0878511965507
0.0627905195293
0.0376901826699
0.0125660398833
-0.0125660398834
-0.0376901826699
-0.0627905195293
-0.0878511965508
-0.112856384873
-0.137790290685
-0.162637165195
-0.187381314586
-0.212007109922
-0.236498997024
-0.26084150629
-0.28501926247
-0.309016994375
-0.332819544523
-0.356411878713
-0.379779095522
-0.402906435714
-0.425779291565
-0.44838321609
-0.470703932165
-0.492727341548
-0.514439533782
-0.535826794979
-0.556875616488
-0.577572703422
-0.597904983058
-0.61785961309
-0.637423989749
-0.656585755753
-0.675332808121
-0.693653305813
-0.711535677209
-0.728968627421
-0.745941145424
-0.762442511011
-0.778462301567
-0.793990398648
-0.809016994375
-0.823532597628
-0.837528040042
-0.850994481795
-0.863923417193
-0.876306680044
-0.888136448814
-0.899405251566
-0.910105970685
-0.920231847366
-0.929776485888
-0.938733857654
-0.947098304995
-0.954864544747
-0.962027671586
-0.968583161129
-0.974526872787
-0.979855052384
-0.984564334529
-0.988651744738
-0.992114701314
-0.994951016981
-0.997158900261
-0.998736956606
-0.999684189283
-1.0
-0.999684189283
-0.998736956606
-0.997158900261
-0.994951016981
-0.992114701314
-0.988651744738
-0.984564334529
-0.979855052384
-0.974526872787
-0.968583161129
-0.962027671586
-0.954864544747
-0.947098304995
-0.938733857654
-0.929776485888
-0.920231847366
-0.910105970685
-0.899405251566
-0.888136448814
-0.876306680044
-0.863923417193
-0.850994481795
-0.837528040042
-0.823532597628
-0.809016994375
-0.793990398648
-0.778462301567
-0.762442511011
-0.745941145424
-0.728968627421
-0.711535677209
-0.693653305813
-0.675332808121
-0.656585755753
-0.637423989749
-0.61785961309
-0.597904983058
-0.577572703422
-0.556875616488
-0.535826794979
-0.514439533782
-0.492727341548
-0.470703932165
-0.44838321609
-0.425779291565
-0.402906435714
-0.379779095522
-0.356411878713
-0.332819544523
-0.309016994375
-0.28501926247
-0.26084150629
-0.236498997024
-0.212007109922
-0.187381314586
-0.162637165195
-0.137790290685
-0.112856384873
-0.0878511965507
-0.0627905195293
-0.0376901826699
-0.0125660398833
0.0125660398833
0.0376901826699
0.0627905195293
0.0878511965507
0.112856384873
0.137790290685
0.162637165195
0.187381314586
0.212007109922
0.236498997024
0.26084150629
0.28501926247
0.309016994375
0.332819544523
0.356411878713
0.379779095522
0.402906435714
0.425779291565
0.44838321609
0.470703932165
0.492727341548
0.514439533782
0.535826794979
0.556875616488
0.577572703422
0.597904983058
0.61785961309
0.637423989749
0.656585755753
0.675332808121
0.693653305813
0.711535677209
0.728968627421
0.745941145424
0.762442511011
0.778462301567
0.793990398648
0.809016994375
0.823532597628
0.837528040042
0.850994481795
0.863923417193
0.876306680044
0.888136448814
0.899405251566
0.910105970685
0.920231847366
0.929776485888
0.938733857654
0.947098304995
0.954864544747
0.962027671586
0.968583161129
0.974526872787
0.979855052384
0.984564334529
0.988651744738
0.992114701314
0.994951016981
0.997158900261
0.998736956606
0.999684189283
1.0
0.999684189283
0.998736956606
0.997158900261
0.994951016981
0.992114701314
0.988651744738
0.984564334529
0.979855052384
0.974526872787
0.968583161129
0.962027671586
0.954864544747
0.947098304995
0.938733857654
0.929776485888
0.920231847366
0.910105970685
0.899405251566
0.888136448814
0.876306680044
0.863923417193
0.850994481795
0.837528040042
0.823532597628
0.809016994375
0.793990398648
0.778462301567
0.762442511011
0.745941145424
0.728968627421
0.711535677209
0.693653305813
0.675332808121
0.656585755753
0.637423989749
0.61785961309
0.597904983058
0.577572703422
0.556875616488
0.535826794979
0.514439533781
0.492727341548
0.470703932165
0.44838321609
0.425779291565
0.402906435714
0.379779095522
0.356411878713
0.332819544523
0.309016994375
0.28501926247
0.26084150629
0.236498997024
0.212007109922
0.187381314586
0.162637165195
0.137790290685
0.112856384873
0.0878511965507
0.0627905195293
0.0376901826699
0.0125660398834
-0.0125660398834
-0.0376901826699
-0.0627905195293
-0.0878511965508
-0.112856384873
-0.137790290685
-0.162637165195
-0.187381314586
-0.212007109922
-0.236498997024
-0.26084150629
-0.28501926247
-0.309016994375
-0.332819544523
-0.356411878713
-0.379779095522
-0.402906435714
-0.425779291565
-0.44838321609
-0.470703932165
-0.492727341548
-0.514439533782
-0.535826794979
-0.556875616488
-0.577572703422
-0.597904983058
-0.61785961309
-0.637423989749
-0.656585755753
-0.675332808121
-0.693653305813
-0.711535677209
-0.728968627421
-0.745941145424
-0.762442511011
-0.778462301567
-0.793990398648
-0.809016994375
-0.823532597628
-0.837528040042
-0.850994481795
-0.863923417193
-0.876306680044
-0.888136448814
-0.899405251566
-0.910105970685
-0.920231847366
-0.929776485888
-0.938733857654
-0.947098304995
-0.954864544747
-0.962027671586
-0.968583161129
-0.974526872787
-0.979855052384
-0.984564334529
-0.988651744738
-0.992114701314
-0.994951016981
-0.997158900261
-0.998736956606
-0.999684189283
-1.0
-0.999684189283
-0.998736956606
-0.997158900261
-0.994951016981
-0.992114701314
-0.988651744738
-0.984564334529
-0.979855052384
-0.974526872787
-0.968583161129
-0.962027671586
-0.954864544747
-0.947098304995
-0.938733857654
-0.929776485888
-0.920231847366
-0.910105970685
-0.899405251566
-0.888136448814
-0.876306680044
-0.863923417193
-0.850994481795
-0.837528040042
-0.823532597628
-0.809016994375
-0.793990398648
-0.778462301567
-0.762442511011
-0.745941145424
-0.728968627421
-0.711535677209
-0.693653305813
-0.675332808121
-0.656585755753
-0.637423989749
-0.61785961309
-0.597904983058
-0.577572703422
-0.556875616488
-0.535826794979
-0.514439533782
-0.492727341548
-0.470703932165
-0.44838321609
-0.425779291565
-0.402906435714
-0.379779095522
-0.356411878713
-0.332819544523
-0.309016994375
-0.28501926247
-0.26084150629
-0.236498997024
-0.212007109922
-0.187381314586
-0.162637165195
-0.137790290685
-0.112856384873
-0.0878511965507
-0.0627905195293
-0.0376901826699
-0.0125660398833
0.0125660398833
0.0376901826699
0.0627905195293
0.0878511965507
0.112856384873
0.137790290685
0.162637165195
0.187381314586
0.212007109922
0.236498997024
0.26084150629
0.28501926247
0.309016994375
0.332819544523
0.356411878713
0.379779095522
0.402906435714
0.425779291565
0.44838321609
0.470703932165
0.492727341548
0.514439533782
0.535826794979
0.556875616488
0.577572703422
0.597904983058
0.61785961309
0.637423989749
0.656585755753
0.675332808121
0.693653305813
0.711535677209
0.728968627421
0.745941145424
0.762442511011
0.778462301567
0.793990398648
0.809016994375
0.823532597628
0.837528040042
0.850994481795
0.863923417193
0.876306680044
0.888136448814
0.899405251566
0.910105970685
0.920231847366
0.929776485888
0.938733857654
0.947098304995
0.954864544747
0.962027671586
0.968583161129
0.974526872787
0.979855052384
0.984564334529
0.988651744738
0.992114701314
0.994951016981
0.997158900261
0.998736956606
0.999684189283
1.0
0.999684189283
0.998736956606
0.997158900261
0.994951016981
0.992114701314
0.988651744738
0.984564334529
0.979855052384
0.974526872787
0.968583161129
0.962027671586
0.954864544747
0.947098304995
0.938733857654
0.929776485888
0.920231847366
0.910105970685
0.899405251566
0.888136448814
0.876306680044
0.863923417193
0.850994481795
0.837528040042
0.823532597628
0.809016994375
0.793990398648
0.778462301567
0.762442511011
0.745941145424
0.728968627421
0.711535677209
0.693653305813
0.675332808121
0.656585755753
0.637423989749
0.61785961309
0.597904983058
