-0.607387286	-0.734275505
-0.606963335	-0.734724628
-0.606607216	-0.735171049
-0.606301971	-0.735608354
-0.606064558	-0.736039831
-0.60587802	-0.73646622
-0.605759313	-0.736880791
-0.605674523	-0.737286883
-0.605640607	-0.7376828
-0.605657565	-0.738066423
-0.605725397	-0.738436215
-0.605827145	-0.738793129
-0.60596281	-0.739137748
-0.606149348	-0.73946578
-0.606369803	-0.739779928
-0.606624174	-0.740077542
-0.60691246	-0.740361854
-0.607234663	-0.740630692
-0.607590782	-0.740881035
-0.607980817	-0.741117123
-0.608387811	-0.741337313
-0.608811762	-0.741542823
-0.609252671	-0.741733654
-0.60969358	-0.741907209
-0.610151448	-0.742067145
-0.610609315	-0.742213832
-0.61108414	-0.742345469
-0.611558965	-0.742462214
-0.612016833	-0.7425664
-0.612491658	-0.742654953
-0.612949525	-0.742734603
-0.613424351	-0.742798672
-0.613882218	-0.742848858
-0.614340085	-0.742887702
-0.614797953	-0.742917008
-0.61525582	-0.742933489
-0.615696729	-0.742937675
-0.616154596	-0.742930733
-0.616595506	-0.742911602
-0.617053373	-0.742883516
-0.61751124	-0.742842074
-0.617969107	-0.742788657
-0.618460891	-0.742727237
-0.618935716	-0.742652886
-0.619444458	-0.742567672
-0.619953199	-0.742471594
-0.620495856	-0.742363804
-0.621055472	-0.742244886
-0.621615088	-0.742111766
-0.622225577	-0.741968682
-0.622853025	-0.741811131
-0.623514389	-0.741642928
-0.624192711	-0.74146153
-0.624921907	-0.741270063
-0.625668061	-0.741062963
-0.626448131	-0.740843092
-0.627262117	-0.740610342
-0.628093062	-0.740366411
-0.628957922	-0.740105152
-0.629839741	-0.739832975
-0.630772433	-0.739547868
-0.631722084	-0.739249247
-0.632705651	-0.738937961
-0.633723133	-0.738616076
-0.634757574	-0.738279565
-0.635808973	-0.73793166
-0.636894288	-0.73757093
-0.637979603	-0.737200132
-0.639064918	-0.736815502
-0.640133275	-0.736421599
-0.64121859	-0.736015188
-0.642269989	-0.735594894
-0.64330443	-0.73516453
-0.644321913	-0.734726324
-0.645288522	-0.734275081
-0.646238172	-0.733814882
-0.647136949	-0.733346946
-0.647984851	-0.732866238
-0.64878188	-0.732380549
-0.649511076	-0.731884844
-0.650189398	-0.731382992
-0.650799887	-0.730875469
-0.651342545	-0.730358885
-0.65181737	-0.729836418
-0.652224363	-0.729307698
-0.652546566	-0.728770287
-0.652800937	-0.728226357
-0.652970517	-0.727673313
-0.653072266	-0.727112849
-0.653106182	-0.726543536
-0.653055308	-0.725967386
-0.652936601	-0.725381486
-0.652750063	-0.724785887
-0.652478734	-0.724183294
-0.652156531	-0.723571267
-0.651766496	-0.722945886
-0.651325587	-0.722314305
-0.650799887	-0.721672708
-0.650240272	-0.721024328
-0.649629782	-0.720362699
-0.64895146	-0.719697466
-0.648239222	-0.719021688
-0.647493068	-0.718339498
-0.64669604	-0.717652008
-0.645882053	-0.716957417
-0.645017193	-0.71626166
-0.644152333	-0.715559756
-0.643253556	-0.714854407
-0.642337822	-0.714145985
-0.641422087	-0.713439788
-0.640489394	-0.712728292
-0.63957366	-0.712018809
-0.638640967	-0.711309698
-0.637725233	-0.710602336
-0.63679254	-0.709896987
-0.635876806	-0.709196301
-0.634944113	-0.708502293
-0.63401142	-0.707811836
-0.63306177	-0.707128639
-0.632061245	-0.706455298
-0.631043762	-0.705791284
-0.629975405	-0.705136068
-0.628839216	-0.704493305
-0.627652153	-0.703861406
-0.626380299	-0.70324567
-0.625006697	-0.7026435
-0.623548305	-0.702058076
-0.621971207	-0.701487703
-0.620275402	-0.700938315
-0.618460891	-0.70040721
-0.616476799	-0.699896508
-0.614340085	-0.699404725
-0.612033791	-0.698935464
-0.609524	-0.698488725
-0.60682767	-0.698060906
-0.60387697	-0.697659848
-0.600688857	-0.697279829
-0.597246373	-0.696918145
-0.593515603	-0.69658121
-0.589496546	-0.696266956
-0.585155286	-0.69597178
-0.580491823	-0.695701352
-0.575489199	-0.695452281
-0.570113498	-0.695224354
-0.564364719	-0.695017254
-0.558242864	-0.694832517
-0.551697058	-0.694671257
-0.544744259	-0.694525577
-0.537367508	-0.694405121
-0.52953289	-0.694303002
-0.521257363	-0.694221922
-0.51250701	-0.694157481
-0.503264875	-0.694113708
-0.493530955	-0.694084667
-0.483305253	-0.694078414
-0.472553851	-0.694083131
-0.461293707	-0.694105706
-0.449490906	-0.694138721
-0.437162406	-0.694189012
-0.424291248	-0.69425393
-0.410860474	-0.694331301
-0.396904001	-0.694420013
-0.382387912	-0.694519535
-0.367312208	-0.694633578
-0.351693847	-0.694755252
-0.335515869	-0.694890864
-0.318795235	-0.695034583
-0.301531942	-0.695188477
-0.283725993	-0.695352069
-0.265394343	-0.695524777
-0.246536994	-0.695708718
-0.227170904	-0.695899602
-0.207279115	-0.696100131
-0.1869125	-0.696304423
-0.166071059	-0.696519896
-0.144754794	-0.696739079
-0.122997619	-0.696961971
-0.100799535	-0.697194455
-0.078194458	-0.697429006
-0.055182387	-0.697671506
-0.03179724	-0.69791867
-0.008055973	-0.698168536
0.016024454	-0.698424603
0.040410126	-0.698683319
0.065067127	-0.698951998
0.089995457	-0.699220518
0.115144241	-0.699493384
0.140479564	-0.699774569
0.165984467	-0.700056656
0.191625035	-0.700345367
0.217350393	-0.700637628
0.243143583	-0.700936619
0.268936773	-0.701238632
0.294696047	-0.701545466
0.320387489	-0.70185617
0.345960225	-0.70217249
0.371346422	-0.702493368
0.396529122	-0.702817691
0.421423536	-0.703147896
0.445995747	-0.703477412
0.47019488	-0.703814347
0.493970063	-0.704150487
0.517253462	-0.704487317
0.539994204	-0.704822291
0.562158372	-0.705157371
0.583695092	-0.705491498
0.604536532	-0.705819265
0.624648776	-0.706141786
0.64398095	-0.706462293
0.66248218	-0.706775858
0.680118549	-0.707079407
0.696822226	-0.707378081
0.71259321	-0.707666262
0.727346712	-0.70794644
0.74108273	-0.708213901
0.753631685	-0.708472511
0.764993577	-0.708718508
0.775168405	-0.708953695
0.78415617	-0.709175846
0.791787292	-0.709388245
0.798061769	-0.709585489
0.803149184	-0.709768159
0.806879954	-0.709938958
0.809254081	-0.710098523
0.810441144	-0.710243673
0.810441144	-0.710374992
0.8090845	-0.710491578
0.806540793	-0.710595022
0.802810023	-0.71068384
0.798061769	-0.710759833
0.791956872	-0.710820299
0.785004073	-0.71086863
0.77686421	-0.710901698
0.767706864	-0.710925386
0.757532036	-0.710934077
0.746509305	-0.710932011
0.734638672	-0.710917755
0.721920136	-0.710893484
0.708353698	-0.710858243
0.694193729	-0.710813834
0.679338479	-0.71076084
0.663906656	-0.710698307
0.647915217	-0.710630687
0.631431995	-0.710554323
0.614490906	-0.710475203
0.597159781	-0.710388611
0.579438622	-0.710297356
0.561378301	-0.71020663
0.543029694	-0.710109174
0.5243928	-0.710011348
0.505535451	-0.709912514
0.486474606	-0.7098096
0.467227222	-0.70970907
0.447827216	-0.709606633
0.428308503	-0.709507111
0.408705	-0.709410609
0.389016707	-0.709315644
0.369294498	-0.709225395
0.349538373	-0.709140605
0.329765289	-0.709063287
0.309992206	-0.70899254
0.290253039	-0.708925026
0.27053083	-0.708868428
0.250842537	-0.708818826
0.231222076	-0.708780511
0.211652489	-0.708752478
0.192150735	-0.708734566
0.172716812	-0.708727994
0.153384638	-0.708733188
0.134103338	-0.708753113
0.114923787	-0.708785281
0.095829025	-0.708830061
0.076802096	-0.708886287
0.057859957	-0.708957193
0.03898565	-0.709040552
0.020196134	-0.709137319
0.001474449	-0.709244261
-0.017162445	-0.709364027
-0.035731507	-0.70949683
-0.05419882	-0.709638006
-0.072598302	-0.709789886
-0.090896035	-0.709950776
-0.109108978	-0.710117282
-0.127237131	-0.710294123
-0.145246577	-0.71047727
-0.163171233	-0.710663438
-0.180994141	-0.710855222
-0.198698343	-0.711047166
-0.21626688	-0.711244993
-0.233716711	-0.7114416
-0.251030877	-0.711636935
-0.268175463	-0.711830893
-0.28513351	-0.712020187
-0.301921977	-0.712208422
-0.318523906	-0.712389078
-0.33490538	-0.712564276
-0.351066399	-0.712731153
-0.366990005	-0.712890188
-0.382676199	-0.713038147
-0.39812498	-0.713179588
-0.413319391	-0.713307621
-0.428242473	-0.713423678
-0.442894226	-0.713527864
-0.457291608	-0.713618907
-0.471400703	-0.713698345
-0.485255428	-0.713762468
-0.498804908	-0.713815409
-0.512100017	-0.713852875
-0.525089882	-0.713875875
-0.537808417	-0.713883347
-0.550221708	-0.713879902
-0.562346712	-0.713857592
-0.574183429	-0.713824894
-0.585697943	-0.713773066
-0.596890254	-0.713708626
-0.607794279	-0.713626909
-0.618359143	-0.71353311
-0.628618761	-0.713423307
-0.638556177	-0.713299142
-0.648154432	-0.713157277
-0.657447442	-0.713001528
-0.666401291	-0.712831895
-0.675032937	-0.712646681
-0.683325422	-0.71245018
-0.691295705	-0.712240218
-0.698926826	-0.712016955
-0.706235744	-0.71178553
-0.71322246	-0.711540857
-0.719870014	-0.711289401
-0.726178408	-0.711028459
-0.732147641	-0.710761423
-0.737794671	-0.710489459
-0.743102539	-0.710215215
-0.748088205	-0.709935831
-0.75273471	-0.70965862
-0.757059012	-0.709379554
-0.761044154	-0.709101336
-0.764707092	-0.708827729
-0.768064785	-0.708553432
-0.771083318	-0.708287721
-0.773796605	-0.708023228
-0.77618769	-0.707764883
-0.77827353	-0.70751136
-0.780037167	-0.707267218
-0.781512517	-0.707025512
-0.782682622	-0.706792021
-0.783547483	-0.706565154
-0.784141014	-0.706344117
-0.784429301	-0.706132565
-0.784446259	-0.705924193
-0.78417493	-0.705728063
-0.783632273	-0.705536914
-0.782818287	-0.705352707
-0.78174993	-0.70518
-0.780427202	-0.705014394
-0.778867061	-0.704859281
-0.77705255	-0.704709838
-0.775000627	-0.704572107
-0.77271129	-0.704443332
-0.770218457	-0.70432754
-0.767488212	-0.704218267
-0.764554469	-0.704118373
-0.761417231	-0.704030509
-0.758076495	-0.703949482
-0.754549221	-0.703877516
-0.750835409	-0.703813605
-0.7469181	-0.703755789
-0.742848169	-0.703709313
-0.738591699	-0.703664798
-0.734182606	-0.703631995
-0.729586976	-0.703605021
-0.72485568	-0.703584513
-0.719954805	-0.703570628
-0.714901307	-0.703560824
-0.709712144	-0.70355987
-0.704370359	-0.703564746
-0.698909868	-0.703573914
-0.693296754	-0.703588434
-0.687581892	-0.703607406
-0.681731366	-0.703630723
-0.675779091	-0.703660506
-0.669725068	-0.703690394
-0.663586255	-0.703723463
-0.657345694	-0.703759604
-0.6510373	-0.703799668
-0.644661074	-0.70384201
-0.638233974	-0.703889174
-0.631756	-0.703935756
-0.62524411	-0.70398467
-0.618698303	-0.704035915
-0.612152497	-0.704087637
-0.605589733	-0.704141319
-0.599043926	-0.704195797
-0.592515078	-0.704249798
-0.586003188	-0.704305919
-0.579542172	-0.704363629
-0.57313203	-0.70442277
-0.566772762	-0.704481646
-0.560498285	-0.704540417
-0.554291639	-0.704603108
-0.548186742	-0.704661296
-0.542200551	-0.704723404
-0.536316109	-0.704783711
-0.530567331	-0.704846827
-0.524954217	-0.704909201
-0.519493726	-0.704972317
-0.514168899	-0.705034744
-0.509013653	-0.705099025
-0.504044945	-0.705163519
-0.499245817	-0.70523098
-0.494650186	-0.70529701
-0.490258052	-0.705366591
-0.486086373	-0.70543702
-0.482135147	-0.705512378
-0.478421335	-0.705588636
-0.474944935	-0.705671571
-0.471722906	-0.705756256
-0.46873829	-0.705845497
-0.466008044	-0.705939773
-0.463515211	-0.70603919
-0.461276749	-0.706141998
-0.4592757	-0.706250954
-0.457529021	-0.706361287
-0.456002796	-0.70647941
-0.454730943	-0.706600501
-0.453696502	-0.706727157
-0.452882516	-0.70685837
-0.452288984	-0.706996048
-0.451915907	-0.707140615
-0.451729368	-0.707289475
-0.451746326	-0.707445012
-0.451949823	-0.707607385
-0.452305942	-0.70777368
-0.452814683	-0.70794803
-0.453459089	-0.708128951
-0.454222201	-0.708315013
-0.455087062	-0.708506374
-0.456070629	-0.708702875
-0.457138986	-0.708904464
-0.458275175	-0.709111511
-0.459496154	-0.709321473
-0.460784966	-0.709535091
-0.462124652	-0.709752419
-0.463532169	-0.709972291
-0.464973603	-0.710191792
-0.466448954	-0.710413677
-0.46795822	-0.710634609
-0.469501402	-0.710853474
-0.471044584	-0.711070166
-0.472604725	-0.711285003
-0.474181823	-0.711495283
-0.47577588	-0.7117018
-0.477369936	-0.711904131
-0.478963993	-0.71209936
-0.480558049	-0.712291781
-0.482152106	-0.712477525
-0.48376312	-0.712657121
-0.485374135	-0.712830729
-0.486985149	-0.712999197
-0.488613122	-0.713160987
-0.490241094	-0.713317213
-0.491902983	-0.713465013
-0.493564871	-0.713608785
-0.495260676	-0.713743549
-0.496990397	-0.713874232
-0.498737076	-0.713998185
-0.500534629	-0.714114506
-0.50234914	-0.714224786
-0.504231483	-0.714329502
-0.506147743	-0.714424414
-0.508114876	-0.714513391
-0.510132884	-0.71459691
-0.512201766	-0.71467338
-0.514321522	-0.714743067
-0.516492152	-0.714806765
-0.518713656	-0.714862992
-0.520986034	-0.71491323
-0.523326245	-0.714956102
-0.525700371	-0.714991926
-0.528125372	-0.715022981
-0.530618205	-0.71504757
-0.533161912	-0.715064316
-0.535739535	-0.715075233
-0.538384991	-0.715079366
-0.541064362	-0.715076186
-0.54377765	-0.715067866
-0.546524854	-0.715051385
-0.549289015	-0.715032519
-0.552087093	-0.715010368
-0.554919087	-0.714981274
-0.557751081	-0.714947941
-0.560583075	-0.714912541
-0.563432027	-0.71487677
-0.566280979	-0.714835912
-0.569146889	-0.714798922
-0.572012799	-0.714755732
-0.574861751	-0.714713019
-0.577727661	-0.714670518
-0.580610529	-0.714631197
-0.583476439	-0.714587318
-0.586359307	-0.714547784
-0.589259133	-0.714507456
-0.592142001	-0.714469035
-0.595024869	-0.714428866
-0.597907737	-0.714389227
-0.600790605	-0.714352449
-0.603656515	-0.714317473
-0.606522425	-0.714279688
-0.609388335	-0.714248793
-0.612237287	-0.714215989
-0.615086239	-0.714185412
-0.617918233	-0.714157908
-0.620733269	-0.714131941
-0.623548305	-0.714110161
-0.626363341	-0.714087426
-0.629161419	-0.714071316
-0.631959497	-0.714053934
-0.634757574	-0.714043176
-0.637538694	-0.714034697
-0.640336772	-0.714028815
-0.64313485	-0.714032737
-0.645932928	-0.714036446
-0.648747964	-0.714046515
-0.651546041	-0.714064374
-0.654344119	-0.714084459
-0.657142197	-0.714111221
-0.659940275	-0.71414413
-0.662721395	-0.714183239
-0.665485556	-0.714227807
-0.66823276	-0.714282656
-0.670946048	-0.714339836
-0.673625419	-0.714408092
-0.676253916	-0.714479634
-0.678848498	-0.714559337
-0.681375247	-0.714644763
-0.683817206	-0.71473586
-0.68620829	-0.714835965
-0.688514585	-0.714938402
-0.690719131	-0.715046457
-0.692838887	-0.715160712
-0.694856894	-0.715279312
-0.696790112	-0.715397965
-0.698587665	-0.715520858
-0.700300428	-0.715644016
-0.701877526	-0.715767757
-0.703335918	-0.715891921
-0.704675604	-0.716018153
-0.705879625	-0.716141046
-0.706947982	-0.716261872
-0.707897633	-0.716381373
-0.708711619	-0.716498596
-0.709372983	-0.716612056
-0.709915641	-0.716722919
-0.710322634	-0.716828324
-0.710577004	-0.716930761
-0.710712669	-0.717028429
-0.710695711	-0.717122016
-0.710543088	-0.717209721
-0.71027176	-0.717291596
-0.709864766	-0.717373843
-0.709322109	-0.717447875
-0.708660745	-0.717521007
-0.707863717	-0.717586348
-0.706931024	-0.717649729
-0.705896583	-0.717711891
-0.704726478	-0.717770396
-0.703454625	-0.717830809
-0.702064065	-0.717886294
-0.700554798	-0.717947873
-0.698960742	-0.718005954
-0.697264937	-0.71806695
-0.695467384	-0.718131179
-0.693585041	-0.718197792
-0.691617907	-0.718272407
-0.689582942	-0.718349249
-0.687463186	-0.718432555
-0.685275598	-0.718524022
-0.683020177	-0.718624022
-0.680713883	-0.718729745
-0.678356714	-0.71884453
-0.675948672	-0.718967634
-0.673489755	-0.719097151
-0.670996922	-0.719236896
-0.668470173	-0.719386604
-0.665909508	-0.719544526
-0.663331884	-0.719713206
-0.660737303	-0.719890947
-0.658125764	-0.72007828
-0.655514224	-0.720274941
-0.652902685	-0.720484267
-0.650308104	-0.720700111
-0.647713523	-0.720926766
-0.645152857	-0.721164761
-0.64260915	-0.721410176
-0.640116317	-0.72166566
-0.6376574	-0.721927556
-0.635266316	-0.722200421
-0.632926105	-0.722479593
-0.630636769	-0.722768622
-0.628432223	-0.723063851
-0.626312467	-0.72336634
-0.624260543	-0.723676089
-0.622310368	-0.723988223
-0.620444982	-0.724308624
-0.618664387	-0.724634007
-0.616985541	-0.724960555
-0.615391484	-0.725292721
-0.613899176	-0.725625364
-0.612491658	-0.725960232
-0.611151972	-0.726297379
-0.609897077	-0.726634845
-0.608726972	-0.726970031
-0.60760774	-0.727300077
-0.606556341	-0.727630441
-0.605572775	-0.727954287
-0.60465704	-0.728277072
-0.603775222	-0.728592757
-0.602944277	-0.728902294
-0.602147249	-0.729207168
-0.601367179	-0.729505683
-0.600621025	-0.729797732
-0.599874871	-0.730082734
-0.599111759	-0.73036217
-0.598348647	-0.730635672
-0.597568576	-0.730901224
-0.59675459	-0.731161371
-0.595923646	-0.731413357
-0.595041827	-0.731659143
-0.594109135	-0.731897351
-0.593125568	-0.732128245
-0.592091127	-0.732352303
-0.591005812	-0.732568465
-0.589835707	-0.732778321
-0.588614727	-0.732981288
-0.587325916	-0.733180015
-0.585952314	-0.733372277
-0.584527838	-0.733558656
-0.583018572	-0.733739207
-0.581424515	-0.733916365
-0.579779585	-0.734087217
-0.578049864	-0.734254731
-0.576252311	-0.734414508
-0.574386926	-0.734572218
-0.572453708	-0.734720601
-0.570469617	-0.734865645
-0.568434651	-0.735003058
-0.566331853	-0.735135225
-0.564161223	-0.735263841
-0.561956677	-0.735386999
-0.559718214	-0.735503161
-0.557428878	-0.735617363
-0.555105626	-0.735725047
-0.552748457	-0.735831141
-0.55037433	-0.735932518
-0.547983246	-0.736030186
-0.545575203	-0.736125151
-0.543150202	-0.736218791
-0.540742159	-0.736308616
-0.538317159	-0.73639595
-0.535909116	-0.736483496
-0.533518031	-0.736569982
-0.531143905	-0.736657634
-0.528786736	-0.736746239
-0.526463483	-0.736835587
-0.524174147	-0.736926843
-0.521918727	-0.737021331
-0.519714181	-0.737118256
-0.517543551	-0.737219263
-0.515440753	-0.737322601
-0.513388829	-0.737433358
-0.511387779	-0.737546712
-0.509437604	-0.737663617
-0.507538303	-0.737789265
-0.505706833	-0.737917828
-0.503943196	-0.738054076
-0.502230434	-0.738195304
-0.500585503	-0.738344853
-0.499025363	-0.738498536
-0.497550013	-0.738654921
-0.496142495	-0.738820314
-0.494819767	-0.738987987
-0.493598788	-0.739161648
-0.49244564	-0.73933621
-0.491394241	-0.739516124
-0.490444591	-0.739700119
-0.48957973	-0.739885386
-0.48879966	-0.740074044
-0.488121338	-0.740260742
-0.487544765	-0.740451838
-0.487069939	-0.740639701
-0.486696862	-0.740831221
-0.486425533	-0.741019985
-0.486238995	-0.741211293
-0.486171163	-0.741398256
-0.486222037	-0.741585006
-0.486357701	-0.741769849
-0.486612072	-0.741954427
-0.486985149	-0.742135401
-0.487459974	-0.742312453
-0.488053506	-0.742487174
-0.488782702	-0.742659563
-0.489613646	-0.742828879
-0.490580255	-0.742993001
-0.49166557	-0.743151983
-0.49288655	-0.743307202
-0.494209277	-0.743458817
-0.495650711	-0.743603703
-0.497210852	-0.743747316
-0.498889698	-0.743884146
-0.500653335	-0.744016684
-0.50251872	-0.74414477
-0.504468896	-0.744270472
-0.506503862	-0.744391192
-0.508623618	-0.744510057
-0.510811206	-0.744625478
-0.513066626	-0.744735069
-0.515355962	-0.744844767
-0.517713131	-0.744948529
-0.520121174	-0.74505033
-0.522546175	-0.745148634
-0.525022049	-0.745244553
-0.527514882	-0.745336444
-0.530024673	-0.745422082
-0.532551422	-0.745506555
-0.535078172	-0.745588218
-0.537621879	-0.745667391
-0.540148628	-0.745743702
-0.542675377	-0.745814131
-0.545185168	-0.745883023
-0.547661043	-0.745946881
-0.55011996	-0.746008407
-0.552528002	-0.746066276
-0.554902129	-0.746121602
-0.55724234	-0.746168342
-0.559514718	-0.74621609
-0.561719264	-0.746259227
-0.563872936	-0.746296747
-0.565958776	-0.746333789
-0.567976784	-0.74636797
-0.569893043	-0.746398919
-0.57174147	-0.746427377
-0.573505107	-0.74645541
-0.575166996	-0.746482225
-0.576744094	-0.746506602
-0.578219444	-0.746533523
-0.579610004	-0.746555569
-0.580915774	-0.746577773
-0.582102837	-0.746601091
-0.58320511	-0.746624249
-0.584222593	-0.746651064
-0.585138328	-0.746674222
-0.585969272	-0.746702203
-0.586715426	-0.746731827
-0.587393748	-0.746761927
-0.587970322	-0.746797062
-0.588496021	-0.746835271
-0.58893693	-0.746876341
-0.589326965	-0.746922976
-0.589666126	-0.746970776
-0.589954413	-0.747026208
-0.590208784	-0.747084607
-0.590429238	-0.747144649
-0.590615777	-0.747211209
-0.590819273	-0.747280207
-0.590988854	-0.747355035
-0.591192351	-0.747434049
-0.591395847	-0.747516507
-0.59163326	-0.747602993
-0.59188763	-0.747692765
-0.592158959	-0.747786246
-0.592464204	-0.747882536
-0.592803365	-0.747984019
-0.593159484	-0.748087145
-0.593549519	-0.74819255
-0.593956512	-0.748301877
-0.594397421	-0.748414012
-0.594855289	-0.748529857
-0.595330114	-0.748648139
-0.595821897	-0.748772039
-0.596330639	-0.74890039
-0.596856338	-0.749033034
-0.597382038	-0.749170023
-0.597907737	-0.74931104
-0.598433437	-0.74945884
-0.598959136	-0.749611303
-0.599467878	-0.749769967
-0.599959661	-0.749934831
-0.600434486	-0.750102238
-0.600892354	-0.750278072
-0.601333263	-0.75045698
-0.601740256	-0.750643359
-0.602130291	-0.750834084
-0.60248641	-0.75103244
-0.602808613	-0.751235513
-0.6030969	-0.751445634
-0.603368229	-0.751661743
-0.603622599	-0.751884794
-0.603826096	-0.75211447
-0.604012634	-0.752351564
-0.604165257	-0.752595601
-0.604283963	-0.752847004
-0.604368753	-0.753104661
-0.604436586	-0.753368623
-0.604453544	-0.753640482
-0.604436586	-0.753918488
-0.604402669	-0.754206934
-0.604317879	-0.754494956
-0.604216131	-0.754794795
-0.604063509	-0.755099828
-0.603893928	-0.755411061
-0.603690431	-0.755728283
-0.603453019	-0.756051439
-0.60318169	-0.75637555
-0.602893403	-0.756708087
-0.6025712	-0.75704073
-0.602232039	-0.757375174
-0.60187592	-0.757711208
-0.601485885	-0.758050687
-0.60109585	-0.758388841
-0.600705815	-0.758726412
-0.600298822	-0.759062924
-0.599891829	-0.759399753
-0.599501794	-0.759731866
-0.599111759	-0.760064561
-0.59875564	-0.760395455
-0.598399521	-0.760723223
-0.59806036	-0.761049135
-0.597755115	-0.761372557
-0.59744987	-0.761693117
-0.597178541	-0.76201055
-0.596924171	-0.762326235
-0.596686758	-0.762638634
-0.596483261	-0.762948171
-0.596296723	-0.763256278
-0.596127142	-0.763560993
-0.59597452	-0.763862687
-0.595821897	-0.764162315
-0.595686233	-0.764458603
-0.595567527	-0.764755528
-0.595465778	-0.765051022
-0.59536403	-0.765344237
-0.595262282	-0.765637241
-0.595177492	-0.765930615
-0.595109659	-0.766222399
-0.595058785	-0.766513071
-0.595007911	-0.766805915
-0.594990953	-0.76709717
-0.594973995	-0.767388477
-0.594990953	-0.767678619
-0.595041827	-0.767969555
-0.595109659	-0.76826028
-0.595211408	-0.768550633
-0.595347072	-0.768842259
-0.595516653	-0.769135845
-0.595703191	-0.76942853
-0.595940604	-0.769721904
-0.596211933	-0.770015438
-0.596517177	-0.770306745
-0.596856338	-0.770597841
-0.597229415	-0.770886816
-0.597636409	-0.771174838
-0.598094276	-0.771460157
-0.598586059	-0.771742509
-0.599111759	-0.772020727
-0.599688332	-0.772296772
-0.60031578	-0.772568154
-0.600994102	-0.77283519
-0.60170634	-0.773096715
-0.60248641	-0.773352728
-0.603317354	-0.773602277
-0.604199173	-0.773847108
-0.605114907	-0.77408309
-0.606098474	-0.77431266
-0.607115957	-0.77453428
-0.608184314	-0.774749754
-0.609286587	-0.774956059
-0.610439734	-0.775155157
-0.611626798	-0.775343232
-0.612864735	-0.77552516
-0.614136589	-0.775697019
-0.615442358	-0.775860029
-0.616799002	-0.776013817
-0.618172604	-0.776158967
-0.61959708	-0.776292883
-0.621055472	-0.776417154
-0.62254778	-0.776536284
-0.624090963	-0.776645716
-0.625668061	-0.776747676
-0.627296034	-0.776841953
-0.628957922	-0.776930929
-0.630653727	-0.777012911
-0.632400406	-0.777088427
-0.634197959	-0.777156736
-0.636029428	-0.777222502
-0.637894813	-0.777280848
-0.639794114	-0.77733469
-0.641710374	-0.777384822
-0.643660549	-0.777430874
-0.645644641	-0.777474329
-0.647628732	-0.777512696
-0.649629782	-0.777545924
-0.65164779	-0.77757454
-0.653682755	-0.77760056
-0.655717721	-0.777623348
-0.657752687	-0.777640359
-0.65980461	-0.777652441
-0.661839576	-0.777660814
-0.663874542	-0.777667916
-0.665909508	-0.777668181
-0.667944473	-0.777664842
-0.669962481	-0.777659066
-0.67196353	-0.777651116
-0.673981538	-0.777638557
-0.67596563	-0.777624514
-0.677949721	-0.777605542
-0.679933813	-0.777584132
-0.681900946	-0.777560497
-0.68386808	-0.777532516
-0.685818255	-0.777503634
-0.687751473	-0.777473322
-0.68968469	-0.777440837
-0.691617907	-0.777404483
-0.693517209	-0.77737062
-0.69541651	-0.777334372
-0.697298853	-0.777299502
-0.69914728	-0.777263625
-0.700995708	-0.777227854
-0.702810219	-0.777193302
-0.704607772	-0.777161771
-0.706371409	-0.777131246
-0.70810113	-0.777104166
-0.709796934	-0.777080372
-0.711441865	-0.777063785
-0.713052879	-0.777051226
-0.714596062	-0.777043382
-0.716071412	-0.777043912
-0.717495888	-0.777053504
-0.718852532	-0.777069508
-0.720141343	-0.777095263
-0.721328407	-0.777131617
-0.72243068	-0.77717804
-0.723448162	-0.777232253
-0.724380855	-0.777300562
-0.725194841	-0.77738
-0.725924037	-0.777472368
-0.726534527	-0.777573692
-0.72702631	-0.777687788
-0.727433304	-0.777816139
-0.727704632	-0.777954983
-0.727874213	-0.778104691
-0.727925087	-0.778267065
-0.727857255	-0.778440408
-0.727687674	-0.778621753
-0.727382429	-0.778814703
-0.726958478	-0.77901608
-0.726432779	-0.77922795
-0.725771415	-0.779444324
-0.725008303	-0.779673205
-0.724126484	-0.779906431
-0.72312596	-0.780147818
-0.722023686	-0.78039567
-0.720785749	-0.780649617
-0.719463021	-0.780910082
-0.718004629	-0.781174999
-0.716461447	-0.781447175
-0.714816516	-0.781723857
-0.713069837	-0.782005254
-0.71122141	-0.782290626
-0.709288193	-0.782579814
-0.707270185	-0.782872764
-0.705184345	-0.783170537
-0.703013715	-0.783471224
-0.700775253	-0.783776946
-0.698485917	-0.784084894
-0.696145706	-0.784393636
-0.693754621	-0.784706724
-0.691312663	-0.785022091
-0.688853746	-0.785339577
-0.686377871	-0.785657488
-0.68386808	-0.785978313
-0.681358289	-0.786300887
-0.678848498	-0.786623513
-0.676338707	-0.786946564
-0.673828916	-0.787272159
-0.671336083	-0.787596216
-0.668877166	-0.787920433
-0.666435207	-0.78824571
-0.664010206	-0.788570827
-0.66163608	-0.788897376
-0.659278911	-0.789223182
-0.656972617	-0.789549889
-0.654700238	-0.789877816
-0.652478734	-0.790207385
-0.650325062	-0.790538809
-0.648205306	-0.790871875
-0.64617034	-0.791205207
-0.644186249	-0.791541877
-0.642286947	-0.791879713
-0.640455478	-0.792218026
-0.638708799	-0.792561003
-0.637029953	-0.79290133
-0.635435896	-0.793246638
-0.633909672	-0.793590621
-0.632485196	-0.793934764
-0.631128552	-0.79428251
-0.629873657	-0.794627129
-0.628686593	-0.794973603
-0.627601278	-0.795319282
-0.626583796	-0.795667876
-0.625668061	-0.796012389
-0.624837117	-0.796358863
-0.624090963	-0.796703483
-0.623412641	-0.797047307
-0.622836067	-0.797392138
-0.622344284	-0.797734479
-0.621937291	-0.798076396
-0.62159813	-0.798419107
-0.621343759	-0.798759752
-0.621191136	-0.799100132
-0.621106346	-0.799437915
-0.621089388	-0.799773684
-0.621174178	-0.800111043
-0.621326801	-0.800447608
-0.621547255	-0.800781363
-0.6218525	-0.801112999
-0.622225577	-0.80144755
-0.622666487	-0.801778814
-0.623175228	-0.802108701
-0.623751802	-0.802440284
-0.624396207	-0.802768899
-0.625091487	-0.8031008
-0.625854599	-0.803431694
-0.626685544	-0.803762641
-0.627567362	-0.804095496
-0.628517013	-0.804429463
-0.629534496	-0.804763855
-0.630619811	-0.805103599
-0.631756	-0.805440746
-0.632960021	-0.805781073
-0.634214917	-0.806122088
-0.635537645	-0.806463634
-0.636928204	-0.80680926
-0.638369638	-0.807152926
-0.639878905	-0.807497651
-0.641456003	-0.807845026
-0.643083976	-0.80819097
-0.644762822	-0.808537497
-0.646509501	-0.808883441
-0.648324012	-0.809228379
-0.650189398	-0.809572521
-0.652105657	-0.809915551
-0.654089748	-0.810254923
-0.656124714	-0.810587937
-0.658227512	-0.81091952
-0.660381184	-0.81124522
-0.66258573	-0.81156488
-0.664858109	-0.811876696
-0.667164403	-0.812181517
-0.66953853	-0.812477594
-0.671946572	-0.812766834
-0.674388531	-0.813045423
-0.676881364	-0.813315904
-0.679391155	-0.813575892
-0.68195182	-0.813824433
-0.684529444	-0.814060839
-0.687124025	-0.814287653
-0.689752522	-0.814501801
-0.69238102	-0.81470551
-0.695043433	-0.814893903
-0.697722804	-0.815073765
-0.700402176	-0.81523794
-0.703098506	-0.815391569
-0.705811793	-0.815534812
-0.708525081	-0.815665971
-0.711255326	-0.815784996
-0.713968614	-0.815895435
-0.716681902	-0.815996547
-0.719378231	-0.816087803
-0.722074561	-0.816172222
-0.724753932	-0.816247844
-0.727399388	-0.816317849
-0.730027885	-0.816381442
-0.732622466	-0.816439576
-0.735200089	-0.816492358
-0.737743796	-0.816542861
-0.740253587	-0.816589708
-0.742729462	-0.816635124
-0.745154463	-0.816676088
-0.747562506	-0.816718642
-0.749919674	-0.816758706
-0.752259885	-0.816798504
-0.754532263	-0.816837772
-0.756787684	-0.81687773
-0.75899223	-0.816917793
-0.761145902	-0.816960029
-0.7632487	-0.817001471
-0.765300624	-0.817045297
-0.767284715	-0.817089917
-0.769217932	-0.81713899
-0.771100276	-0.81718838
-0.772897829	-0.817242805
-0.774644508	-0.817299826
-0.776323354	-0.817363154
-0.777917411	-0.817433212
-0.779443635	-0.817509364
-0.780885069	-0.817593201
-0.782258671	-0.817682813
-0.783547483	-0.817783449
-0.784768462	-0.817892669
-0.785887693	-0.818008143
-0.786939092	-0.818133791
-0.787922659	-0.818267495
-0.788804477	-0.818412062
-0.789618464	-0.818563996
-0.79034766	-0.818724726
-0.791009023	-0.818898334
-0.791585597	-0.819077984
-0.79207738	-0.819267172
-0.79251829	-0.819464362
-0.792874409	-0.819671515
-0.793179654	-0.819887253
-0.793417066	-0.820109563
-0.793586647	-0.820339397
-0.793705353	-0.820574849
-0.793756227	-0.820816236
-0.793773185	-0.821063559
-0.793722311	-0.821316234
-0.793637521	-0.82157087
-0.793518814	-0.821831282
-0.793349234	-0.822094396
-0.793145737	-0.822360479
-0.792925283	-0.822630853
-0.792653954	-0.822902129
-0.792365667	-0.823174836
-0.792060422	-0.823450881
-0.791738219	-0.823727138
-0.791399059	-0.824007317
-0.79104294	-0.82428935
-0.790669862	-0.82457414
-0.790296785	-0.824859671
-0.78990675	-0.825148276
-0.789499757	-0.825440855
-0.789109722	-0.825735501
-0.788702729	-0.826033486
-0.788312694	-0.826336028
-0.787905701	-0.82664122
-0.787515666	-0.826950227
-0.787125631	-0.827262414
-0.786735595	-0.827579901
-0.786362518	-0.82790311
-0.785989441	-0.828228652
-0.785633322	-0.828562302
-0.785277203	-0.828897329
-0.784938042	-0.829239034
-0.78461584	-0.829583335
-0.784310595	-0.829935797
-0.78400535	-0.830289638
-0.783734021	-0.830647346
-0.783496608	-0.831009825
-0.783276154	-0.831375006
-0.783072657	-0.831743313
-0.782920035	-0.832114165
-0.782801328	-0.832488195
-0.782716538	-0.832863021
-0.782682622	-0.83324055
-0.78269958	-0.833617707
-0.782767412	-0.833994812
-0.782903077	-0.834374566
-0.783089615	-0.834751512
-0.783327028	-0.835130683
-0.783649231	-0.83550853
-0.784039266	-0.835885899
-0.784514091	-0.836264488
-0.785056749	-0.836639314
-0.785684197	-0.83701663
-0.786396435	-0.837391297
-0.787210421	-0.837767448
-0.788109197	-0.838142909
-0.789092764	-0.838519166
-0.790195037	-0.838894946
-0.791365142	-0.839272209
-0.792653954	-0.839650215
-0.794027556	-0.840030658
-0.795502906	-0.840411366
-0.797063046	-0.840794618
-0.798724935	-0.84117999
-0.800471614	-0.841568382
-0.802303083	-0.841957622
-0.804202384	-0.842349406
-0.806203434	-0.842742144
-0.808255358	-0.84313875
-0.810392072	-0.843537688
-0.812596618	-0.843937898
-0.814852038	-0.844339062
-0.817175291	-0.844743511
-0.819549417	-0.845147537
-0.821974418	-0.845552728
-0.824450293	-0.84595935
-0.826960084	-0.846364224
-0.829503791	-0.846767189
-0.832067848	-0.847169466
-0.834660733	-0.84756904
-0.837272273	-0.847966547
-0.839892291	-0.84836008
-0.842520788	-0.848749797
-0.84514759	-0.849134162
-0.847772696	-0.849515983
-0.850387627	-0.849891763
-0.852988991	-0.850261448
-0.855575093	-0.850628219
-0.858140846	-0.850986246
-0.860681161	-0.851339768
-0.863192648	-0.851687673
-0.86567361	-0.852029271
-0.868120657	-0.85236573
-0.870530395	-0.852695882
-0.872897739	-0.853020257
-0.875222687	-0.85333732
-0.877501849	-0.853648341
-0.879731832	-0.853953639
-0.881910941	-0.854253637
-0.884039176	-0.854545475
-0.886113145	-0.85483143
-0.888131153	-0.855110337
-0.890091503	-0.855384103
-0.891994196	-0.855651245
-0.893837536	-0.855912081
-0.895619826	-0.856168254
-0.897341068	-0.856418332
-0.899001261	-0.856663588
-0.900598709	-0.856901742
-0.902135108	-0.857136134
-0.903607067	-0.85736422
-0.905016281	-0.857588914
-0.906361054	-0.857806719
-0.907643082	-0.858021133
-0.908862366	-0.858231412
-0.910017209	-0.858436446
-0.911109307	-0.858638459
-0.912140356	-0.858835331
-0.913108661	-0.859027593
-0.914015916	-0.859216463
-0.914863819	-0.859401412
-0.915650672	-0.859581856
-0.916378172	-0.859758591
-0.917048015	-0.859933258
-0.917660201	-0.860102415
-0.918214729	-0.860268551
-0.918714991	-0.860431295
-0.919157596	-0.860592556
-0.919547631	-0.860748888
-0.919885097	-0.860905378
-0.920169992	-0.861058584
-0.920404013	-0.86121163
-0.920590551	-0.861362398
-0.920729607	-0.861512583
-0.920822877	-0.861663456
-0.920872055	-0.861813323
-0.920878838	-0.861963614
-0.920844922	-0.862113533
-0.920770307	-0.862265202
-0.920656688	-0.862419043
-0.920507457	-0.862575163
-0.920320918	-0.862732661
-0.92010216	-0.862893233
-0.919847789	-0.863055288
-0.919562894	-0.863221212
-0.919247474	-0.86339111
-0.918899834	-0.863563976
-0.918523365	-0.863741188
-0.918119764	-0.863920307
-0.917685638	-0.864105733
-0.917224379	-0.864293013
-0.916735987	-0.864484056
-0.916218767	-0.864678862
-0.915676109	-0.864877324
-0.915104623	-0.865076952
-0.9145077	-0.865279495
-0.913885339	-0.865483415
-0.913237542	-0.865689297
-0.912566003	-0.865896238
-0.911872419	-0.866102278
-0.911155094	-0.866311021
-0.910417419	-0.866519446
-0.909659394	-0.866727235
-0.908879324	-0.866935236
-0.908078904	-0.867141912
-0.90725983	-0.867348748
-0.906420407	-0.867553145
-0.905560634	-0.86775786
-0.904682207	-0.867960509
-0.903781735	-0.868162946
-0.902859217	-0.868361567
-0.901918045	-0.868562679
-0.900953132	-0.868761353
-0.899969566	-0.86895955
-0.898963953	-0.869157164
-0.897936296	-0.869357004
-0.896888288	-0.869555149
-0.895818236	-0.869756207
-0.894726137	-0.869958273
-0.893613689	-0.870163571
-0.892480892	-0.870370195
-0.891326049	-0.870579733
-0.890150856	-0.870794305
-0.888955314	-0.871012004
-0.887741118	-0.871234154
-0.886508268	-0.871461074
-0.885256764	-0.871692551
-0.883986606	-0.871929434
-0.882697794	-0.872172305
-0.881392025	-0.872421324
-0.880067601	-0.872675747
-0.878727915	-0.872937749
-0.877371272	-0.873206004
-0.87599767	-0.87348099
-0.874610501	-0.873761645
-0.873209767	-0.87404972
-0.871795466	-0.874343359
-0.870369294	-0.874644259
-0.868932947	-0.87495263
-0.867486426	-0.875266407
-0.866031425	-0.875588769
-0.864569642	-0.875917331
-0.86310277	-0.876253206
-0.861630812	-0.876593851
-0.860157158	-0.87694271
-0.858683503	-0.877296921
-0.857209849	-0.877655955
-0.855739586	-0.87802103
-0.854272715	-0.878390556
-0.852814323	-0.878764428
-0.851361018	-0.879141586
-0.849917889	-0.8795224
-0.848483238	-0.879905705
-0.847058762	-0.880290917
-0.845647852	-0.880677508
-0.844250509	-0.881066483
-0.842870124	-0.881455511
-0.841506697	-0.881846818
-0.840161924	-0.882238443
-0.838842588	-0.882628584
-0.837546993	-0.883019626
-0.836281923	-0.883408442
-0.835049073	-0.883797259
-0.83385353	-0.884182683
-0.832695296	-0.884567843
-0.831582848	-0.884948816
-0.830514491	-0.885328994
-0.829503791	-0.885704668
-0.828537182	-0.886078911
-0.827621448	-0.886449603
-0.826773545	-0.886816639
-0.825993475	-0.887179223
-0.825264279	-0.887538628
-0.824602915	-0.887893846
-0.824026342	-0.88824403
-0.823500642	-0.888589338
-0.823059733	-0.888929453
-0.822686656	-0.889263579
-0.822381411	-0.889590817
-0.822160957	-0.889912278
-0.821991376	-0.890226584
-0.821906586	-0.89053432
-0.82187267	-0.890834053
-0.821923544	-0.891125732
-0.82204225	-0.891409991
-0.822211831	-0.891685188
-0.822449243	-0.891952967
-0.82273753	-0.892211577
-0.823076691	-0.892461761
-0.823483684	-0.892703254
-0.823924593	-0.892934732
-0.824416377	-0.893159479
-0.824942076	-0.893375164
-0.825501692	-0.893582476
-0.826095224	-0.893780567
-0.826739629	-0.893969914
-0.827400993	-0.894151895
-0.828079315	-0.894325715
-0.828791553	-0.894490632
-0.829537707	-0.894649614
-0.830283861	-0.894799269
-0.831065627	-0.894941664
-0.83186096	-0.895077116
-0.832669859	-0.895205149
-0.83349402	-0.895324809
-0.834330051	-0.895438322
-0.835174562	-0.895543568
-0.836030944	-0.895640547
-0.836894108	-0.895730637
-0.83776236	-0.895812406
-0.838637395	-0.895887022
-0.839515822	-0.895953158
-0.840399337	-0.89601373
-0.841282851	-0.896064657
-0.842169757	-0.896107158
-0.843058358	-0.896143194
-0.84394696	-0.896170221
-0.844837258	-0.896189193
-0.845725859	-0.89619958
-0.846616157	-0.89620207
-0.84750815	-0.896196082
-0.848401839	-0.896183046
-0.849297224	-0.896161954
-0.850196001	-0.89613392
-0.85110156	-0.896098096
-0.852012207	-0.896055383
-0.852933029	-0.89600488
-0.85386233	-0.895948866
-0.854805198	-0.895887499
-0.855761632	-0.895820249
-0.856735024	-0.895749503
-0.857727069	-0.895673244
-0.858742856	-0.895593065
-0.859782385	-0.895510553
-0.860850742	-0.89542624
-0.861949623	-0.895338747
-0.863084117	-0.895250777
-0.864254222	-0.89516445
-0.865466722	-0.895076374
-0.866719922	-0.894990789
-0.8680223	-0.894907112
-0.869372161	-0.894826031
-0.870772895	-0.894747918
-0.872224504	-0.894675475
-0.873728683	-0.894606583
-0.87528204	-0.894543255
-0.87688288	-0.894485598
-0.878531202	-0.894434459
-0.880221919	-0.894389467
-0.881953336	-0.894352954
-0.88372206	-0.894324285
-0.885523005	-0.89430208
-0.887354474	-0.894289945
-0.889209685	-0.894286341
-0.891088636	-0.894290845
-0.892984546	-0.8943042
-0.894897414	-0.894327305
-0.896820456	-0.894359102
-0.898751978	-0.89440137
-0.900690283	-0.894452154
-0.902631979	-0.894513483
-0.904575371	-0.894584135
-0.906515372	-0.894665597
-0.908453677	-0.894756217
-0.910385198	-0.894857583
-0.912306545	-0.89496965
-0.914219413	-0.895089972
-0.916118714	-0.895222044
-0.918002753	-0.895362371
-0.91987153	-0.895512122
-0.921721653	-0.89567114
-0.923549731	-0.895839258
-0.925357458	-0.896015643
-0.927141445	-0.89620135
-0.92890169	-0.896394958
-0.930636499	-0.896597098
-0.93234587	-0.896806508
-0.934026412	-0.897024509
-0.935679822	-0.897250533
-0.937302707	-0.897483304
-0.938896763	-0.897722937
-0.940461991	-0.897970805
-0.941994999	-0.898223899
-0.943497482	-0.89848482
-0.944966049	-0.898752036
-0.946402395	-0.899024547
-0.947806522	-0.899303835
-0.949175036	-0.899587474
-0.95051133	-0.899878437
-0.951812012	-0.900173974
-0.953077083	-0.900476203
-0.954308237	-0.900783658
-0.955502084	-0.901095707
-0.95666371	-0.901413464
-0.957788028	-0.90173599
-0.958878431	-0.902065087
-0.959934917	-0.902398276
-0.960954096	-0.902736149
-0.961941054	-0.903078718
-0.962890705	-0.90342508
-0.963808135	-0.903775683
-0.964689954	-0.904130249
-0.965537856	-0.904488165
-0.966351842	-0.904847728
-0.967133608	-0.905209009
-0.967883154	-0.905573326
-0.968598784	-0.905938199
-0.969283889	-0.906302994
-0.969938469	-0.906670321
-0.970562525	-0.90703663
-0.971157753	-0.907403094
-0.971724152	-0.907768821
-0.972263418	-0.908132767
-0.972773855	-0.908495404
-0.973260551	-0.90885713
-0.973720114	-0.909215782
-0.974155936	-0.909572431
-0.97456632	-0.909926483
-0.97495466	-0.910277144
-0.975319258	-0.910625897
-0.97566181	-0.91096988
-0.975984013	-0.911311373
-0.976284171	-0.911649315
-0.976563978	-0.911983335
-0.976825132	-0.912313964
-0.977065937	-0.912641361
-0.977289783	-0.912965259
-0.977496671	-0.913285024
-0.977686601	-0.913602405
-0.977861269	-0.913914804
-0.978020675	-0.91422397
-0.978164818	-0.914530593
-0.978297091	-0.914832764
-0.978415797	-0.915130378
-0.978524329	-0.915425766
-0.97862099	-0.915717868
-0.97870578	-0.916004777
-0.978782091	-0.916289619
-0.978849923	-0.916569692
-0.978907581	-0.916846108
-0.978956759	-0.917119557
-0.978999154	-0.9173876
-0.97903307	-0.917652146
-0.979061899	-0.917912717
-0.979082248	-0.918168995
-0.979099207	-0.918420875
-0.979109381	-0.918668251
-0.979114469	-0.918909161
-0.979114469	-0.919146627
-0.979109381	-0.91937821
-0.979100902	-0.919604388
-0.979089032	-0.919824683
-0.979072074	-0.920038938
-0.97905342	-0.920245879
-0.979031374	-0.920446673
-0.979007633	-0.920641372
-0.978982196	-0.920828335
-0.978955063	-0.92100703
-0.97892793	-0.92117979
-0.978899102	-0.921343489
-0.978870273	-0.921500404
-0.978841444	-0.921648521
-0.978812616	-0.921788425
-0.978785483	-0.921920062
-0.97875835	-0.922043856
-0.978732913	-0.922158376
-0.978709171	-0.922265264
-0.97868543	-0.922362932
-0.978663385	-0.922452704
-0.978641339	-0.922533573
-0.97862099	-0.922606598
-0.978602336	-0.922669873
-0.978585378	-0.922724828
-0.97856842	-0.922771939
-0.978553157	-0.922809724
-0.978537895	-0.922839559
-0.978522633	-0.922860651
-0.978507371	-0.922874694
-0.978493804	-0.92288063
-0.978478542	-0.922878245
-0.97846328	-0.92286754
-0.978446322	-0.922849787
-0.978429364	-0.92282541
-0.978412406	-0.922793614
-0.978393752	-0.922755034
-0.978373402	-0.922708717
-0.978351357	-0.922657048
-0.978329311	-0.922599656
-0.97830557	-0.922534738
-0.978278437	-0.922464628
-0.978251304	-0.922388793
-0.978222475	-0.922306706
-0.978190255	-0.922219796
-0.978158035	-0.922127268
-0.978122423	-0.922029601
-0.978085115	-0.92192711
-0.978044416	-0.921819533
-0.978002021	-0.921707398
-0.97795793	-0.921590546
-0.977912143	-0.921469402
-0.977862965	-0.921344231
-0.977812091	-0.921213654
-0.977757825	-0.921078254
-0.977701863	-0.920938403
-0.977645902	-0.920793783
-0.977586549	-0.920644764
-0.977527196	-0.920490181
-0.977464451	-0.920330881
-0.977403402	-0.920166441
-0.977338961	-0.919997603
-0.977276216	-0.9198232
-0.977211776	-0.919642861
-0.977147335	-0.919458443
-0.977084591	-0.919269784
-0.977021846	-0.919075509
-0.976960797	-0.91887604
-0.976901444	-0.918672596
-0.976843786	-0.918464277
-0.976787825	-0.918250924
-0.976733559	-0.918033384
-0.976682685	-0.917810173
-0.976635202	-0.917582883
-0.976589416	-0.917350663
-0.97654702	-0.917113781
-0.976508017	-0.916872817
-0.976472405	-0.916628515
-0.976440185	-0.916379921
-0.97640966	-0.916127458
-0.976382527	-0.915871869
-0.976355394	-0.915614795
-0.976331653	-0.915354436
-0.976309608	-0.915092964
-0.976287562	-0.914830009
-0.976267213	-0.914565622
-0.976246863	-0.914302242
-0.976228209	-0.914037326
-0.976207859	-0.913773204
-0.97618751	-0.913509719
-0.976168856	-0.913247558
-0.976148506	-0.912987676
-0.976126461	-0.912728218
-0.976104415	-0.912472522
-0.97608237	-0.912218999
-0.976058629	-0.911969769
-0.976033192	-0.911723824
-0.976007754	-0.911482649
-0.975978926	-0.911244706
-0.975950097	-0.911014183
-0.975919573	-0.91078721
-0.975885657	-0.910566808
-0.97585174	-0.910352819
-0.975816129	-0.910145666
-0.975778821	-0.909945296
-0.975739817	-0.909751868
-0.975699118	-0.909567026
-0.975656723	-0.909389231
-0.975612632	-0.909219386
-0.975566845	-0.909059397
-0.975519363	-0.908906934
-0.975470184	-0.908764592
-0.975421006	-0.908629563
-0.975368436	-0.908503438
-0.975315866	-0.90838648
-0.9752616	-0.908280016
-0.975205639	-0.908181182
-0.975149677	-0.908091675
-0.975093716	-0.908012556
-0.975036058	-0.907941968
-0.974978401	-0.907881237
-0.974922439	-0.907829515
-0.974864782	-0.907787755
-0.974807125	-0.907756489
-0.974749467	-0.907733596
-0.97469181	-0.907720824
-0.974634153	-0.907717856
-0.974578191	-0.907725403
-0.97452223	-0.907742557
-0.974467964	-0.907770336
-0.974413698	-0.907808211
-0.974359432	-0.907856118
-0.974306862	-0.907913314
-0.974255988	-0.907981814
-0.97420681	-0.908058803
-0.974159327	-0.908145395
-0.974111845	-0.908241219
-0.974067754	-0.908347016
-0.974025359	-0.908460343
-0.973984659	-0.908583109
-0.973945656	-0.908713718
-0.973908348	-0.908853389
-0.973874432	-0.909000362
-0.973842212	-0.909153371
-0.973813383	-0.909314043
-0.97378625	-0.909481795
-0.973764205	-0.909653713
-0.973743855	-0.909832594
-0.973728593	-0.910015682
-0.973715026	-0.910202189
-0.973706547	-0.910392575
-0.973699764	-0.910586739
-0.973698068	-0.910781874
-0.97370146	-0.910979615
-0.973706547	-0.911177733
-0.973716722	-0.911375596
-0.973730289	-0.911573565
-0.973748943	-0.911769367
-0.973770988	-0.911963839
-0.973798121	-0.912154129
-0.973828645	-0.912342825
-0.973864257	-0.912527646
-0.973901565	-0.91270844
-0.973942264	-0.912884894
-0.973986355	-0.913055937
-0.974033838	-0.913222794
-0.97408132	-0.913383826
-0.97413389	-0.913539459
-0.97418646	-0.913689537
-0.974240726	-0.913833591
-0.974296688	-0.913971772
-0.974352649	-0.914104464
-0.974412002	-0.914231193
-0.97446966	-0.914351808
-0.974529013	-0.914466417
-0.974590062	-0.914576189
-0.974649415	-0.914680073
-0.974710464	-0.914777545
-0.974769817	-0.914870411
-0.974830866	-0.914957136
-0.974890219	-0.915038948
-0.974951268	-0.915115047
-0.975010621	-0.915187341
-0.97507167	-0.915253663
-0.975131023	-0.915315072
-0.975190377	-0.915371627
-0.975251426	-0.915423387
-0.975312475	-0.915471781
-0.975373524	-0.915514059
-0.975434572	-0.915552983
-0.975497317	-0.915587599
-0.975560062	-0.915617392
-0.975622807	-0.915644684
-0.975687247	-0.915668224
-0.975753384	-0.915687482
-0.975821216	-0.915703306
-0.975889048	-0.915716194
-0.975958576	-0.915724551
-0.9760298	-0.915730401
-0.976104415	-0.915731525
-0.976179031	-0.915730958
-0.976255342	-0.915725722
-0.976333349	-0.915717577
-0.976413052	-0.915706321
-0.97649445	-0.915690566
-0.976577545	-0.915673136
-0.976662335	-0.915651811
-0.976748821	-0.915627593
-0.976837003	-0.915599809
-0.976925185	-0.915569379
-0.977015063	-0.915534085
-0.97710494	-0.915496725
-0.977196514	-0.915456767
-0.977289783	-0.915413312
-0.977381356	-0.915365618
-0.977474626	-0.915315062
-0.977567895	-0.915261485
-0.977659468	-0.915205152
-0.977752738	-0.915145428
-0.977844311	-0.915082313
-0.977935884	-0.915016123
-0.978025762	-0.914947125
-0.97811564	-0.914874364
-0.978203822	-0.914799431
-0.978290308	-0.914721371
-0.978376794	-0.914640502
-0.978461584	-0.914556772
-0.978544678	-0.914471081
-0.978626077	-0.914382528
-0.978707476	-0.914292544
-0.978787178	-0.914200229
-0.978865185	-0.91410643
-0.978943193	-0.914011624
-0.979019504	-0.913914751
-0.979095815	-0.913818143
-0.97917043	-0.913719203
-0.979245046	-0.913621165
-0.979319661	-0.913522596
-0.979392581	-0.913424716
-0.979467196	-0.913327155
-0.979540116	-0.913230971
-0.979614731	-0.913135211
-0.979687651	-0.913042789
-0.97976057	-0.912952488
-0.97983349	-0.912863882
-0.97990641	-0.912778456
-0.979977633	-0.912695679
-0.980048857	-0.912616506
-0.980120081	-0.912540089
-0.980189609	-0.912467223
-0.980257441	-0.912397483
-0.980323578	-0.912331081
-0.980388018	-0.912268601
-0.980452459	-0.912210997
-0.980513508	-0.912155989
-0.980574557	-0.912105857
-0.98063391	-0.912060441
-0.980689871	-0.912018841
-0.980745833	-0.911982169
-0.980800099	-0.91195085
-0.980852669	-0.911924194
-0.980903543	-0.911903633
-0.980952721	-0.91188784
-0.981000204	-0.911878513
-0.981047686	-0.911874698
-0.981091777	-0.911877136
-0.981134172	-0.91188588
-0.981176567	-0.911900824
-0.981217267	-0.911921968
-0.981254574	-0.911950426
-0.981291882	-0.911985137
-0.981327494	-0.912026207
-0.98136141	-0.912073478
-0.98139363	-0.912127479
-0.981424155	-0.912186938
-0.981452984	-0.912252756
-0.981478421	-0.912324934
-0.981502162	-0.912402994
-0.981522512	-0.912486777
-0.981541165	-0.91257639
-0.981556428	-0.912671567
-0.981568298	-0.912771143
-0.981578473	-0.912876547
-0.98158356	-0.912985874
-0.981586952	-0.913099228
-0.981586952	-0.913217086
-0.981581865	-0.913337382
-0.981575081	-0.913460646
-0.981564907	-0.913586401
-0.98155134	-0.913714169
-0.981534382	-0.913842043
-0.981512337	-0.913970236
-0.981488595	-0.914098693
-0.981459767	-0.914225401
-0.981427546	-0.914352057
-0.981391935	-0.91447638
-0.981352931	-0.914598372
-0.98130884	-0.914717873
-0.981261358	-0.914834672
-0.981210483	-0.914947284
-0.981156218	-0.91505661
-0.981096865	-0.915161379
-0.98103412	-0.915260902
-0.980967983	-0.915356662
-0.980898455	-0.915445957
-0.980825536	-0.91553027
-0.980749225	-0.915607906
-0.980669522	-0.915678759
-0.980586427	-0.915741981
-0.980499941	-0.915797677
-0.980410064	-0.915844736
-0.980316794	-0.915883633
-0.980220133	-0.915913787
-0.980121777	-0.915935143
-0.980018333	-0.915945954
-0.979913193	-0.915947544
-0.979802966	-0.915938588
-0.979691042	-0.915919934
-0.979574032	-0.915890681
-0.97945363	-0.915850618
-0.979331532	-0.915801069
-0.979204346	-0.915740179
-0.979073769	-0.915668637
-0.978939801	-0.915586231
-0.978802441	-0.915493227
-0.978661689	-0.915388882
-0.978519241	-0.915273514
-0.978373402	-0.915146223
-0.978224171	-0.915008492
-0.978073245	-0.914859632
-0.977918926	-0.91469975
-0.977764608	-0.914528155
-0.977608594	-0.914346015
-0.977450884	-0.914152482
-0.977291479	-0.913948455
-0.977132073	-0.913733141
-0.976972667	-0.91350744
-0.976813262	-0.913270822
-0.976653856	-0.913023394
-0.97649445	-0.912766161
-0.976335045	-0.912498807
-0.976175639	-0.912221596
-0.976016234	-0.911935005
-0.975856828	-0.911639352
-0.975699118	-0.911334478
-0.975541408	-0.911021867
-0.975383698	-0.910700618
-0.975225989	-0.910371632
-0.975069974	-0.910035227
-0.97491396	-0.909691879
-0.974759642	-0.909341642
-0.97460702	-0.908984729
-0.974454397	-0.908621402
-0.974303471	-0.908251505
-0.97415424	-0.907876308
-0.974005009	-0.907496024
-0.97385917	-0.907110811
-0.973715026	-0.906721041
-0.973574275	-0.906327721
-0.973435219	-0.905930319
-0.973297859	-0.905530427
-0.97316389	-0.905127568
-0.973033313	-0.904722959
-0.972907823	-0.904316178
-0.97278403	-0.903907595
-0.972665323	-0.903498111
-0.972551704	-0.903087515
-0.972443173	-0.902676388
-0.972341425	-0.902264095
-0.972244764	-0.90185175
-0.972156582	-0.901440994
-0.972076879	-0.901029656
-0.972005655	-0.900619377
-0.971942911	-0.900210582
-0.971888645	-0.89980343
-0.97184625	-0.899398079
-0.971812334	-0.898995803
-0.971788592	-0.898596123
-0.971775026	-0.898199834
-0.971771634	-0.897808527
-0.971776722	-0.897420029
-0.971790288	-0.897036088
-0.971814029	-0.89665803
-0.971847945	-0.896284264
-0.971888645	-0.895915161
-0.971937823	-0.895551941
-0.971993785	-0.895194391
-0.972058225	-0.89484177
-0.972129449	-0.89449519
-0.972209152	-0.89415481
-0.972293942	-0.893821055
-0.972385516	-0.893492916
-0.972480481	-0.893171137
-0.972582229	-0.892856884
-0.972687369	-0.892548141
-0.9727959	-0.892247507
-0.972909519	-0.891953921
-0.973024834	-0.891667912
-0.973141844	-0.891390224
-0.973263942	-0.891119638
-0.97338604	-0.890856947
-0.973509834	-0.890602205
-0.973637019	-0.89035536
-0.973764205	-0.890115244
-0.973894782	-0.889882972
-0.974025359	-0.889656529
-0.974157632	-0.88943618
-0.974293296	-0.889220707
-0.97442896	-0.889010162
-0.974564625	-0.888804652
-0.974703681	-0.888604282
-0.974842737	-0.888406403
-0.974983488	-0.888213028
-0.97512424	-0.888022356
-0.975266688	-0.887833168
-0.975409135	-0.887647212
-0.975551583	-0.887463218
-0.975695726	-0.887278428
-0.97583987	-0.887094327
-0.975982317	-0.886910014
-0.976126461	-0.886724748
-0.976268908	-0.886538527
-0.976411356	-0.886350134
-0.976552108	-0.886160363
-0.97669286	-0.885968684
-0.976831916	-0.885774196
-0.976969276	-0.885575999
-0.97710494	-0.885375311
-0.977237213	-0.885171708
-0.97736779	-0.884962065
-0.977496671	-0.88474993
-0.977620465	-0.884533609
-0.977742563	-0.884310823
-0.977859573	-0.884083214
-0.977973192	-0.883848981
-0.978083419	-0.883608335
-0.978190255	-0.88336096
-0.978290308	-0.883106006
-0.978386969	-0.882843422
-0.978480238	-0.882574848
-0.978566724	-0.882297266
-0.978649818	-0.882011523
-0.978727825	-0.881717884
-0.978799049	-0.881415819
-0.978866881	-0.881107182
-0.97892793	-0.880790067
-0.978985588	-0.88046426
-0.979036462	-0.880132466
-0.979082248	-0.879791132
-0.979121252	-0.879443068
-0.979156864	-0.879089546
-0.979183997	-0.878727491
-0.979207738	-0.878359078
-0.979226392	-0.877985471
-0.979238263	-0.877604127
-0.979245046	-0.877218066
-0.979246742	-0.876827819
-0.97924335	-0.876432379
-0.979234871	-0.876033335
-0.979219609	-0.875631535
-0.979200955	-0.875227191
-0.979177214	-0.874821947
-0.979146689	-0.874414212
-0.979112773	-0.874005788
-0.979073769	-0.873597258
-0.979027983	-0.873189894
-0.978978804	-0.872781152
-0.978924539	-0.872375643
-0.978865185	-0.871972518
-0.978802441	-0.871571407
-0.978732913	-0.871174748
-0.978661689	-0.870780738
-0.978583682	-0.870392452
-0.978502283	-0.870008193
-0.978415797	-0.869629764
-0.97832592	-0.869257482
-0.978230955	-0.868890817
-0.978132598	-0.868531518
-0.97803085	-0.868181229
-0.977924014	-0.867839047
-0.977813787	-0.867503384
-0.977701863	-0.867177895
-0.977584853	-0.866861734
-0.977464451	-0.8665558
-0.977340657	-0.866260412
-0.977215167	-0.865975411
-0.977086286	-0.865702969
-0.976955709	-0.865441974
-0.976821741	-0.865191472
-0.976687772	-0.86495496
-0.976550412	-0.864730425
-0.976413052	-0.864519297
-0.976275692	-0.864320252
-0.976136636	-0.864132336
-0.975999275	-0.863959364
-0.975861915	-0.863797309
-0.975724555	-0.863647442
-0.975588891	-0.86350722
-0.975454922	-0.863380776
-0.975322649	-0.863263607
-0.975193768	-0.863157725
-0.975068279	-0.863061859
-0.974946181	-0.862976062
-0.974827474	-0.862899804
-0.974715551	-0.86283282
-0.97460702	-0.862775268
-0.974503576	-0.862726832
-0.974406915	-0.862687139
-0.974317037	-0.862655078
-0.974235639	-0.862631231
-0.974161023	-0.862613637
-0.974094887	-0.862602614
-0.974035534	-0.86259864
-0.973988051	-0.862598481
-0.973947352	-0.862604098
-0.973918523	-0.862614591
-0.973898173	-0.862629959
-0.973889694	-0.862648984
-0.97389139	-0.862672407
-0.973904957	-0.862699328
-0.973928698	-0.862728793
-0.973966006	-0.862760642
-0.974015184	-0.862794187
-0.974076233	-0.862830647
-0.974150848	-0.8628661
-0.974237334	-0.862904573
-0.974335691	-0.862941404
-0.974447614	-0.862979454
-0.974573104	-0.863017556
-0.974713855	-0.863056295
-0.974866478	-0.863093603
-0.975034363	-0.863129691
-0.975217509	-0.863165515
-0.975414223	-0.863199908
-0.975627894	-0.863232765
-0.975856828	-0.8632626
-0.976101024	-0.863288832
-0.976360482	-0.863312891
-0.976636898	-0.863334301
-0.976928576	-0.863352213
-0.977237213	-0.863368323
-0.977561112	-0.863378816
-0.977900273	-0.863388726
-0.978258087	-0.863393919
-0.97863286	-0.863396145
-0.979024591	-0.863394078
-0.979434976	-0.863387719
-0.979862319	-0.863377385
-0.980310011	-0.863362388
-0.980774662	-0.863343204
-0.981261358	-0.863317873
-0.981766707	-0.863289733
-0.982292407	-0.863254969
-0.982840152	-0.863214217
-0.983407398	-0.863170179
-0.983997199	-0.863120894
-0.984608876	-0.86306382
-0.985243107	-0.863001499
-0.985900231	-0.862933561
-0.986580419	-0.862859317
-0.987283839	-0.862779667
-0.988011	-0.862691909
-0.988762072	-0.862600865
-0.989536885	-0.862501131
-0.990335778	-0.862394189
-0.991158413	-0.862283114
-0.992004789	-0.862165361
-0.992874398	-0.862039554
-0.9937669	-0.861907599
-0.994682126	-0.861768702
-0.995619397	-0.86162334
-0.996578375	-0.861472996
-0.997558719	-0.86131571
-0.998559617	-0.86115286
-0.999580611	-0.860983333
-1	-0.860809354
-1	-0.86063034
-1	-0.86044502
-1	-0.860255726
-1	-0.860061769
-1	-0.859865479
-1	-0.85966707
-1	-0.859463838
-1	-0.859259653
-1	-0.859052765
-1	-0.85884593
-1	-0.85863724
-1	-0.858428762
-1	-0.858218482
-1	-0.85800958
-1	-0.857801791
-1	-0.857593472
-1	-0.857384994
-1	-0.857179166
-1	-0.856974079
-1	-0.856770954
-1	-0.856568252
-1	-0.856367564
-1	-0.856168784
-1	-0.855971488
-1	-0.855775887
-1	-0.8555814
-1	-0.855389032
-1	-0.855195445
-1	-0.855001593
-1	-0.854809437
-1	-0.854613625
-1	-0.854415428
-1	-0.854216701
-1	-0.854014264
-1	-0.853808701
-1	-0.853600117
-1	-0.853384484
-1	-0.853166415
-1	-0.852943098
-1	-0.852714271
-1	-0.852480621
-1	-0.852242943
-1	-0.852000125
-1	-0.851752961
-1	-0.851500551
-1	-0.851244167
-1	-0.850983119
-1	-0.85071852
-1	-0.850449841
-1	-0.850180526
-1	-0.849905276
-1	-0.849628542
-1	-0.849347144
-1	-0.849064687
-1	-0.848780163
-1	-0.848492353
-1	-0.84820184
-1	-0.847910427
-1	-0.847615622
-1	-0.847317213
-1	-0.84701891
-1	-0.846718223
-1	-0.846416317
-1	-0.84611192
-1	-0.845805085
-1	-0.84549878
-1	-0.845190621
-1	-0.844880554
-0.99918364	-0.844571122
-0.99450254	-0.844261479
-0.989530441	-0.843951306
-0.984259032	-0.843641768
-0.978680343	-0.843334722
-0.972785725	-0.843027781
-0.966568905	-0.842723119
-0.960019707	-0.842419358
-0.953129653	-0.842118035
-0.945893654	-0.841818937
-0.938301536	-0.841523761
-0.930348212	-0.8412315
-0.922023506	-0.8409421
-0.913320636	-0.840653495
-0.904232819	-0.840370349
-0.89475327	-0.840088368
-0.884873512	-0.839810256
-0.874588456	-0.839536013
-0.86389132	-0.839261134
-0.852773624	-0.838989381
-0.841231977	-0.838717575
-0.82924942	-0.838447624
-0.816853088	-0.838175183
-0.803998888	-0.837904808
-0.790686821	-0.837632737
-0.776933844	-0.837359978
-0.762723	-0.8370869
-0.748054289	-0.836813239
-0.732927711	-0.836535657
-0.717326307	-0.836257916
-0.701250078	-0.835978321
-0.684715982	-0.835695333
-0.667690102	-0.835408742
-0.650206356	-0.83512178
-0.632264741	-0.834831851
-0.613831344	-0.834537364
-0.594940079	-0.834242611
-0.575573989	-0.833942931
-0.555750031	-0.833641979
-0.535468207	-0.833338377
-0.514728515	-0.833031754
-0.493530955	-0.832721369
-0.471909445	-0.832409818
-0.449847025	-0.832093444
-0.427360654	-0.831777812
-0.40446729	-0.831458418
-0.381166933	-0.831137381
-0.357476541	-0.830816768
-0.333413071	-0.830491862
-0.308993483	-0.8301695
-0.284217776	-0.829845549
-0.259119866	-0.829521332
-0.233716711	-0.829199129
-0.208008311	-0.828878781
-0.182062498	-0.828558592
-0.155845357	-0.828240258
-0.129424719	-0.827924891
-0.102817542	-0.827611909
-0.076040786	-0.82730269
-0.049128364	-0.826998293
-0.022114195	-0.826698188
0.004967807	-0.826403489
0.032083725	-0.826114089
0.059182685	-0.825831738
0.08623077	-0.825555428
0.113194066	-0.825287385
0.140038655	-0.825026496
0.166679747	-0.824773344
0.193117343	-0.824527505
0.21928361	-0.824291364
0.245110717	-0.824065239
0.270581704	-0.823847964
0.295611782	-0.823641023
0.320183993	-0.823443462
0.344196588	-0.823255811
0.367632609	-0.823081302
0.390407267	-0.822915325
0.412486645	-0.822761059
0.433752036	-0.822618188
0.454186484	-0.822487505
0.473705196	-0.822367421
0.492223384	-0.822258412
0.509673215	-0.822159102
0.525986856	-0.822073358
0.541079519	-0.821994715
0.554866411	-0.821929002
0.567313618	-0.821871716
0.578353307	-0.821825081
0.587934604	-0.821787085
0.59604055	-0.821758362
0.602637231	-0.821738807
0.607724645	-0.821729321
0.611268877	-0.821726195
0.613269926	-0.821733137
0.613727794	-0.82174665
0.612642479	-0.821767424
0.610047897	-0.82179514
0.605961008	-0.821829427
0.600432685	-0.821870391
0.593513801	-0.821917291
0.585255232	-0.821966522
0.575724809	-0.822022642
0.564973407	-0.822079399
0.5530519	-0.822140024
0.54002812	-0.822205683
0.525935982	-0.822273781
0.510826362	-0.822345693
0.494784049	-0.822417606
0.477809044	-0.822495189
0.460003094	-0.822569328
0.441383158	-0.82265486
0.422034026	-0.822735145
0.401972655	-0.822819671
0.381249922	-0.82290674
0.359950614	-0.822996246
0.338091691	-0.823087926
0.315724026	-0.823180771
0.292898494	-0.823275047
0.269665969	-0.823373192
0.246077325	-0.823472344
0.22214952	-0.82357494
0.197950387	-0.823679391
0.17351384	-0.823786491
0.148873798	-0.823896401
0.124081132	-0.824009967
0.09916976	-0.824125652
0.074173599	-0.824243511
0.049143521	-0.824364231
0.024079526	-0.824486435
-0.000950552	-0.824610917
-0.025946713	-0.824737149
-0.050875043	-0.824865182
-0.075718583	-0.824996289
-0.100426458	-0.825126919
-0.124998669	-0.825262477
-0.149418257	-0.825399785
-0.173651307	-0.825541066
-0.19768086	-0.825689078
-0.221489958	-0.825837567
-0.245044686	-0.825993634
-0.268362002	-0.826153146
-0.29139103	-0.826321137
-0.31414873	-0.826493844
-0.336584226	-0.826670737
-0.358714478	-0.826856799
-0.380505569	-0.827048425
-0.401957499	-0.827247735
-0.42305331	-0.827450596
-0.443793002	-0.827661988
-0.464176575	-0.827877832
-0.484170113	-0.828102208
-0.503790574	-0.828330612
-0.523004042	-0.828564474
-0.541844432	-0.828802258
-0.56027783	-0.829044334
-0.578304234	-0.829290067
-0.595940604	-0.82953882
-0.613153022	-0.829788951
-0.629975405	-0.830040619
-0.646373837	-0.830292499
-0.662365276	-0.830544909
-0.677932763	-0.830797266
-0.693110216	-0.831048775
-0.707863717	-0.831296787
-0.722210225	-0.831544321
-0.736166698	-0.831787616
-0.74969922	-0.83202646
-0.762841707	-0.832260693
-0.775594158	-0.832487931
-0.787939617	-0.832713314
-0.79989504	-0.832929953
-0.811460429	-0.833142246
-0.82265274	-0.833346591
-0.833458408	-0.83354394
-0.843892694	-0.833736785
-0.853958991	-0.833920939
-0.863662386	-0.834100111
-0.87300627	-0.834270592
-0.881997427	-0.834434926
-0.890637552	-0.834590993
-0.898935125	-0.834738051
-0.906891841	-0.83487769
-0.914514483	-0.835009857
-0.921808139	-0.835133015
-0.928776201	-0.835246687
-0.935423755	-0.835351668
-0.941757586	-0.835446845
-0.947784476	-0.835531423
-0.953506121	-0.835608582
-0.958931001	-0.8356735
-0.964064202	-0.835728083
-0.968910812	-0.835772651
-0.973477614	-0.835805137
-0.977769696	-0.835826811
-0.981792144	-0.835836244
-0.985553948	-0.835830892
-0.989058329	-0.835813934
-0.9923119	-0.835783038
-0.995320427	-0.835736721
-0.998090015	-0.835678269
-1	-0.835601958
-1	-0.835512557
-1	-0.835407523
-1	-0.835286008
-1	-0.835148542
-1	-0.834996026
-1	-0.834829042
-1	-0.834645259
-1	-0.834447592
-1	-0.834232331
-1	-0.83400663
-1	-0.833765083
-1	-0.833509706
-1	-0.833242935
-1	-0.832963657
-1	-0.832671024
-1	-0.832366786
-1	-0.832054069
-1	-0.831727733
-1	-0.831391646
-1	-0.831046602
-1	-0.830690748
-1	-0.83032615
-1	-0.829953444
-1	-0.829573637
-1	-0.829185457
-1	-0.828790864
-1	-0.828388905
-0.999629094	-0.827981488
-0.997770865	-0.827571422
-0.995833747	-0.827156479
-0.993821505	-0.826735549
-0.99173787	-0.826314512
-0.989586741	-0.825890614
-0.987371172	-0.825463006
-0.985094894	-0.825036088
-0.982760449	-0.824608745
-0.980372756	-0.824180448
-0.977934189	-0.823753635
-0.975448139	-0.823329366
-0.972917998	-0.822907429
-0.970347158	-0.822490579
-0.967739011	-0.822076537
-0.965098643	-0.821669385
-0.962426054	-0.821269652
-0.959728029	-0.820878027
-0.957004567	-0.820493928
-0.954260754	-0.820119685
-0.951498289	-0.81975514
-0.948718865	-0.819401352
-0.945925874	-0.819059277
-0.943122709	-0.818729549
-0.940309369	-0.818411426
-0.937489246	-0.81810634
-0.934665731	-0.817816464
-0.93184052	-0.81754062
-0.929015309	-0.817279646
-0.926195186	-0.817036383
-0.923378454	-0.816807274
-0.920571897	-0.81659354
-0.91777382	-0.816396174
-0.914987612	-0.81621502
-0.912216667	-0.816050908
-0.909462681	-0.815900077
-0.906729043	-0.815766856
-0.904015756	-0.815649008
-0.901329601	-0.81554647
-0.898670579	-0.815459555
-0.896042082	-0.815388087
-0.893447501	-0.815332004
-0.890886835	-0.815290446
-0.888363478	-0.815261506
-0.885879124	-0.81524866
-0.883433774	-0.815250208
-0.881032514	-0.815263811
-0.878675345	-0.815290351
-0.876362268	-0.815328549
-0.874094977	-0.815378029
-0.871876864	-0.815437186
-0.869706234	-0.815506921
-0.867584782	-0.815583778
-0.865514205	-0.815670131
-0.863497893	-0.815761636
-0.861535847	-0.815862044
-0.859629762	-0.815966733
-0.857783031	-0.816076536
-0.855997349	-0.81618917
-0.854272715	-0.816307113
-0.852612522	-0.816427483
-0.85101677	-0.816551065
-0.84948885	-0.816675304
-0.848030458	-0.816802044
-0.84664329	-0.816926606
-0.845329041	-0.817050734
-0.844091104	-0.817174883
-0.842929477	-0.817294702
-0.841845858	-0.817414691
-0.840840246	-0.817530323
-0.839917728	-0.817643073
-0.839076609	-0.817750285
-0.838318584	-0.817854005
-0.837641958	-0.817952685
-0.837050122	-0.818046685
-0.836541381	-0.818133288
-0.836115734	-0.818218317
-0.835773181	-0.818296218
-0.835508636	-0.818370621
-0.835325489	-0.818438718
-0.835218653	-0.818501251
-0.835189824	-0.818558272
-0.835237307	-0.81861169
-0.835359405	-0.818659014
-0.835554422	-0.818700614
-0.835824055	-0.818738346
-0.836166608	-0.818768976
-0.83658208	-0.818795473
-0.837070472	-0.818818048
-0.837630087	-0.818833788
-0.838260927	-0.81884428
-0.83896299	-0.818851647
-0.839734581	-0.818852124
-0.8405757	-0.818846718
-0.841486347	-0.818838133
-0.842463131	-0.818822924
-0.843504355	-0.818802521
-0.844606628	-0.818775865
-0.845768254	-0.818746454
-0.846984146	-0.818710683
-0.848252608	-0.818670037
-0.849568553	-0.818624727
-0.850928588	-0.81857629
-0.852325931	-0.818521972
-0.853762278	-0.81846389
-0.855230845	-0.81840247
-0.85672824	-0.818336281
-0.858254465	-0.81826723
-0.859806126	-0.81819537
-0.861381529	-0.818118476
-0.862975585	-0.818039621
-0.864589991	-0.817958222
-0.86621966	-0.817872425
-0.86786459	-0.817784085
-0.869521391	-0.817692617
-0.871186672	-0.817600196
-0.872857039	-0.817503058
-0.874530799	-0.8174038
-0.876202862	-0.81730078
-0.87787323	-0.817196488
-0.879536814	-0.817087692
-0.881190224	-0.816977517
-0.882835154	-0.816863422
-0.884463127	-0.81674604
-0.886075837	-0.816625108
-0.887666502	-0.816503222
-0.889233426	-0.816377414
-0.890774912	-0.816250017
-0.892285874	-0.816119334
-0.893764616	-0.815986108
-0.895207746	-0.815848005
-0.896613568	-0.815704763
-0.897978691	-0.815560461
-0.899303114	-0.815412131
-0.900581751	-0.815259243
-0.901816297	-0.815102434
-0.903001664	-0.81494181
-0.904139549	-0.814774773
-0.905228256	-0.814604663
-0.906264393	-0.814430048
-0.907249655	-0.814249974
-0.908182348	-0.814065026
-0.909060775	-0.813875414
-0.90988324	-0.81368135
-0.910653135	-0.813483683
-0.911367069	-0.813281829
-0.912025042	-0.81307351
-0.912627052	-0.812862223
-0.913173101	-0.812647439
-0.913664885	-0.812429475
-0.914100707	-0.812207272
-0.914480567	-0.811983531
-0.914807857	-0.811754439
-0.915082577	-0.811525081
-0.915303032	-0.811292809
-0.915472613	-0.811057781
-0.915593015	-0.810822117
-0.915662543	-0.810584863
-0.915684588	-0.810348193
-0.915660847	-0.810109561
-0.915589623	-0.809871831
-0.915474308	-0.809633941
-0.915316599	-0.809395998
-0.915116494	-0.809155671
-0.914875689	-0.808917569
-0.914594186	-0.808677666
-0.914273679	-0.808437021
-0.91391756	-0.808198495
-0.913524133	-0.807958327
-0.913098486	-0.80771747
-0.912638923	-0.807477884
-0.912148835	-0.807239624
-0.911629919	-0.807001893
-0.91108387	-0.806765858
-0.910512384	-0.806530989
-0.909918852	-0.806298823
-0.909304971	-0.806068299
-0.90867074	-0.805839525
-0.908021247	-0.805612711
-0.907353099	-0.805388123
-0.906671386	-0.805166661
-0.90597441	-0.804948591
-0.905263868	-0.804730733
-0.904541455	-0.804520613
-0.903807172	-0.804312029
-0.903062713	-0.804108585
-0.902309776	-0.803910759
-0.90154836	-0.803715741
-0.900776769	-0.803526235
-0.899998394	-0.803340598
-0.899211541	-0.803162432
-0.898416208	-0.802986704
-0.897615789	-0.802814633
-0.896808586	-0.802650511
-0.895996295	-0.802491052
-0.895178917	-0.802336522
-0.894356452	-0.802188139
-0.893530595	-0.802047228
-0.892699651	-0.801913631
-0.891865315	-0.801788141
-0.891025891	-0.801671449
-0.890181381	-0.801565673
-0.889331782	-0.801467793
-0.888475401	-0.801381095
-0.887613932	-0.801306957
-0.886747376	-0.801242622
-0.885874037	-0.801190953
-0.88499561	-0.801152638
-0.884113791	-0.801125559
-0.883228581	-0.801111409
-0.882341675	-0.801113158
-0.881451378	-0.801126777
-0.88056108	-0.80115195
-0.879670783	-0.801190741
-0.87877879	-0.801242516
-0.8778851	-0.801307858
-0.876991411	-0.801386607
-0.876096026	-0.801475106
-0.87519725	-0.801577968
-0.874296778	-0.801692752
-0.873394609	-0.801818507
-0.872487354	-0.801952475
-0.871580098	-0.802099639
-0.870669451	-0.802256024
-0.869755412	-0.802420782
-0.868839678	-0.802593702
-0.867920552	-0.802773669
-0.866996338	-0.802959571
-0.866067037	-0.803150137
-0.865132649	-0.803347434
-0.864193173	-0.803544783
-0.863246914	-0.80374775
-0.862297263	-0.803954161
-0.861340829	-0.804158982
-0.860379308	-0.804368414
-0.859412699	-0.804576786
-0.858441003	-0.804784363
-0.857465916	-0.804991728
-0.85648574	-0.80520116
-0.855500478	-0.805408154
-0.854513519	-0.805612817
-0.853523169	-0.805817903
-0.852531124	-0.806021294
-0.851540774	-0.8062223
-0.850553815	-0.806426538
-0.849570249	-0.806627544
-0.848593465	-0.806828603
-0.847623465	-0.807027701
-0.846665335	-0.807228654
-0.845715684	-0.807427116
-0.844774513	-0.807625896
-0.843845212	-0.807825418
-0.842926086	-0.808024357
-0.84201883	-0.808222395
-0.841121749	-0.808418049
-0.840236539	-0.80861561
-0.8393632	-0.808812165
-0.838503427	-0.809006917
-0.837658916	-0.809200663
-0.836829668	-0.80939372
-0.836017377	-0.809584233
-0.835223741	-0.809775382
-0.834447062	-0.809963828
-0.833690733	-0.810153599
-0.832949666	-0.810339449
-0.832225558	-0.810526888
-0.831518407	-0.810711413
-0.830828215	-0.810897686
-0.830148197	-0.811082741
-0.829486833	-0.811267425
-0.828842427	-0.811453062
-0.828214979	-0.811641032
-0.82760449	-0.8118281
-0.826994	-0.812015275
-0.826400468	-0.812203827
-0.825840853	-0.812393704
-0.825281237	-0.812585383
-0.82473858	-0.812780507
-0.82421288	-0.812976743
-0.823704139	-0.813175576
-0.823229314	-0.813373667
-0.822754488	-0.813575309
-0.822296621	-0.81377764
-0.821855712	-0.813983362
-0.821431761	-0.814188237
-0.821024767	-0.814397191
-0.820634732	-0.81460461
-0.820261655	-0.814814094
-0.819905536	-0.815021142
-0.819583333	-0.815231739
-0.81926113	-0.815438575
-0.818972844	-0.815646152
-0.818701515	-0.815853093
-0.818447144	-0.816056165
-0.818209732	-0.816258178
-0.818006235	-0.816457594
-0.817802738	-0.816653089
-0.8176162	-0.816844768
-0.817446619	-0.817030087
-0.817293997	-0.817210267
-0.817158333	-0.817382285
-0.817039626	-0.817546937
-0.81692092	-0.817703481
-0.816819172	-0.817849055
-0.816717423	-0.817984031
-0.816632633	-0.818108195
-0.816547843	-0.818217681
-0.816463053	-0.818319323
-0.81639522	-0.818406657
-0.81631043	-0.818477298
-0.81622564	-0.818535697
-0.81614085	-0.818578304
-0.816039101	-0.818602363
-0.815937353	-0.818611425
-0.815818647	-0.818603317
-0.815682982	-0.818577774
-0.815547318	-0.818535644
-0.815377738	-0.818473959
-0.815208157	-0.81839256
-0.815004661	-0.818294946
-0.814784206	-0.818177193
-0.814546793	-0.818039621
-0.814309381	-0.817885515
-0.814021094	-0.817712066
-0.813732807	-0.817516995
-0.813427562	-0.817303854
-0.813105359	-0.817073065
-0.81274924	-0.816821291
-0.812393121	-0.816553036
-0.812037002	-0.816265491
-0.811646967	-0.815960511
-0.811256932	-0.815638203
-0.810849939	-0.815299254
-0.810442946	-0.814942552
-0.810035953	-0.814571223
-0.809612001	-0.814186011
-0.80918805	-0.813784688
-0.808764099	-0.813370594
-0.808340148	-0.812943675
-0.807916197	-0.812507164
-0.807492246	-0.812057882
-0.807085252	-0.811599379
-0.806678259	-0.811131443
-0.806271266	-0.810657571
-0.805881231	-0.810175433
-0.805508154	-0.809688048
-0.805135077	-0.809195257
-0.804795916	-0.808699606
-0.804456755	-0.808199926
-0.804134552	-0.807696378
-0.803846265	-0.807191399
-0.803557979	-0.806687533
-0.803303608	-0.806181494
-0.803049237	-0.805676039
-0.802811824	-0.805172968
-0.80259137	-0.80467191
-0.802387873	-0.804171648
-0.802184377	-0.803677321
-0.80198088	-0.803186226
-0.801794342	-0.802697729
-0.801590845	-0.802218187
-0.801404307	-0.801740977
-0.80120081	-0.801273147
-0.800980355	-0.800811093
-0.800776859	-0.80035826
-0.800539446	-0.799914913
-0.800302033	-0.79947978
-0.800047663	-0.799053073
-0.799759376	-0.798640145
-0.799471089	-0.79823596
-0.799148886	-0.797843646
-0.798792767	-0.79746421
-0.79841969	-0.797095903
-0.798012697	-0.796739996
-0.797588746	-0.796396436
-0.797130879	-0.796065913
-0.796639095	-0.795748268
-0.796130354	-0.795442175
-0.795587696	-0.795151238
-0.795011123	-0.794873815
-0.794417591	-0.794606726
-0.793790143	-0.794358026
-0.793145737	-0.794120454
-0.792484374	-0.793898039
-0.791789094	-0.793688713
-0.791076856	-0.793495232
-0.79034766	-0.793316431
-0.789601505	-0.79315215
-0.788838393	-0.793003873
-0.788075281	-0.792870222
-0.787312169	-0.792750403
-0.786532099	-0.792647489
-0.785752029	-0.792561692
-0.784988917	-0.792489196
-0.784225804	-0.792434718
-0.78347965	-0.792397146
-0.782750454	-0.792373828
-0.782021258	-0.792367628
-0.781325978	-0.792379181
-0.780647656	-0.792405625
-0.780003251	-0.792449875
-0.779392761	-0.79250944
-0.778816187	-0.792585592
-0.778290488	-0.792680292
-0.777798704	-0.792789141
-0.777357795	-0.792916062
-0.77696776	-0.793057344
-0.776645557	-0.793216007
-0.776391187	-0.793388449
-0.776204648	-0.793577956
-0.776068984	-0.793779756
-0.776018109	-0.793995972
-0.776035068	-0.794224375
-0.776136816	-0.794465497
-0.776289438	-0.794720292
-0.776543809	-0.794985262
-0.776849054	-0.795262791
-0.777239089	-0.795552773
-0.777713914	-0.795850864
-0.778239614	-0.796157699
-0.778833145	-0.79647704
-0.779477551	-0.796802793
-0.780189789	-0.797139888
-0.780952901	-0.797484719
-0.781766888	-0.797838241
-0.782631748	-0.798197699
-0.783547483	-0.798565052
-0.784497133	-0.798940514
-0.785497658	-0.799322176
-0.786532099	-0.799708449
-0.787600456	-0.800099862
-0.788719687	-0.800496097
-0.789872834	-0.800897526
-0.791059898	-0.80129922
-0.792263919	-0.801703828
-0.793518814	-0.802110715
-0.794807626	-0.802516966
-0.796113396	-0.802922317
-0.79747004	-0.80332825
-0.798860599	-0.803730368
-0.800268117	-0.804131849
-0.801726509	-0.804526389
-0.80320186	-0.804917219
-0.804711126	-0.805301372
-0.806271266	-0.805679748
-0.807848365	-0.806050547
-0.809459379	-0.80641541
-0.81110431	-0.806770734
-0.812783156	-0.807120175
-0.814478961	-0.807460502
-0.816208682	-0.807793463
-0.817972319	-0.808117997
-0.819752914	-0.808436438
-0.821567425	-0.808743749
-0.823381936	-0.809046027
-0.825230363	-0.809338076
-0.82707879	-0.80962366
-0.828944176	-0.809901401
-0.830804473	-0.810171723
-0.832674946	-0.810432029
-0.83454881	-0.810685711
-0.83642437	-0.810930596
-0.838298235	-0.811168803
-0.840168707	-0.811397578
-0.842035788	-0.811618933
-0.843899478	-0.811831333
-0.845754688	-0.812033452
-0.847604811	-0.812226667
-0.849446455	-0.812410132
-0.85127962	-0.81258374
-0.853104306	-0.812746432
-0.854918817	-0.812898418
-0.856724849	-0.813041396
-0.85851901	-0.813171761
-0.860304693	-0.813292004
-0.8620802	-0.813402337
-0.863843837	-0.813500111
-0.865597299	-0.813585378
-0.867338891	-0.813659834
-0.869066916	-0.813720406
-0.870779679	-0.813770327
-0.872478875	-0.813807634
-0.874162809	-0.813832542
-0.875828089	-0.81384314
-0.877474716	-0.813843511
-0.879099297	-0.813828832
-0.880701832	-0.813802123
-0.882280626	-0.813763808
-0.883833983	-0.813711291
-0.885360208	-0.81364648
-0.886857603	-0.813570699
-0.888327866	-0.813482835
-0.889767604	-0.813384213
-0.891178514	-0.813273085
-0.892558899	-0.813151782
-0.893912151	-0.813018237
-0.895234879	-0.812876108
-0.896528778	-0.812722955
-0.897795544	-0.812557773
-0.899035177	-0.812383741
-0.900249373	-0.812198528
-0.901436437	-0.812002238
-0.902601455	-0.811798795
-0.903742731	-0.811580301
-0.904861962	-0.811355024
-0.905960844	-0.81111936
-0.907039376	-0.810874528
-0.908099254	-0.810620952
-0.909142173	-0.810360911
-0.910168135	-0.810090059
-0.911178835	-0.809812636
-0.912177664	-0.80953108
-0.913166318	-0.809242263
-0.914146493	-0.808947299
-0.915118189	-0.80864889
-0.916086494	-0.808348256
-0.917048015	-0.808043276
-0.918006145	-0.807737766
-0.918960883	-0.807428865
-0.919910534	-0.807121341
-0.920856793	-0.806813341
-0.921796268	-0.80650958
-0.922732353	-0.806203593
-0.923659958	-0.805902217
-0.924579084	-0.805603331
-0.925491427	-0.805308844
-0.926393595	-0.805017166
-0.927285588	-0.80473386
-0.928164015	-0.804453946
-0.929030571	-0.804183307
-0.92988017	-0.803917966
-0.930711114	-0.80366492
-0.931521709	-0.80342242
-0.932308562	-0.803189618
-0.933071674	-0.802970011
-0.933805958	-0.802764395
-0.934509717	-0.802573723
-0.935182951	-0.802398154
-0.935822269	-0.802238377
-0.936425976	-0.8020954
-0.936990679	-0.801972772
-0.937516378	-0.801866784
-0.937997987	-0.801782153
-0.938435505	-0.801717818
-0.938827235	-0.801675953
-0.939168092	-0.801655233
-0.939458075	-0.801656504
-0.939693792	-0.80168067
-0.939873547	-0.801728364
-0.939995645	-0.801801761
-0.940054998	-0.801895401
-0.940053302	-0.80201522
-0.93998547	-0.802156661
-0.939849806	-0.802323274
-0.939644613	-0.802508805
-0.939368197	-0.802718343
-0.939017166	-0.80294892
-0.938591519	-0.803202601
-0.938084473	-0.803475732
-0.937497725	-0.803771067
-0.93682449	-0.80408601
-0.93606477	-0.804422839
-0.935215171	-0.804778799
-0.934272304	-0.805153625
-0.933236167	-0.805546204
-0.932101674	-0.805957383
-0.930867128	-0.806385892
-0.929530834	-0.806830299
-0.9280894	-0.807290445
-0.92654113	-0.807761931
-0.924884329	-0.808250164
-0.923113909	-0.808749473
-0.921231565	-0.809260652
-0.919232212	-0.809781847
-0.917114152	-0.810312581
-0.914873993	-0.810852536
-0.912511737	-0.81139514
-0.910022296	-0.811948343
-0.907402278	-0.81250372
-0.904651683	-0.813064183
-0.901765423	-0.813624805
-0.898738411	-0.814185905
-0.895572344	-0.814750767
-0.892260437	-0.815311601
-0.888800996	-0.815871535
-0.885190627	-0.816429613
-0.881427637	-0.81698287
-0.877506936	-0.817531887
-0.873425134	-0.818075498
-0.869178839	-0.81861275
-0.864762963	-0.819142053
-0.860170724	-0.819666322
-0.85539873	-0.820181634
-0.850440196	-0.820685394
-0.845290037	-0.821181576
-0.839939773	-0.821664934
-0.834384317	-0.822140713
-0.828621973	-0.82260123
-0.822618824	-0.82305136
-0.816412178	-0.823488136
-0.80996812	-0.823914578
-0.803269692	-0.824326552
-0.796350808	-0.824724006
-0.789160596	-0.82510959
-0.781732971	-0.82547954
-0.774034018	-0.825837196
-0.766080694	-0.82617535
-0.757839083	-0.826498507
-0.749343101	-0.826807091
-0.740558832	-0.82709861
-0.731486277	-0.827373118
-0.722142393	-0.827630298
-0.712493264	-0.827872268
-0.702555848	-0.828096962
-0.692313187	-0.828302154
-0.68178224	-0.828493356
-0.670946048	-0.828665322
-0.65980461	-0.828822767
-0.64834097	-0.828962405
-0.636589044	-0.829086252
-0.624514914	-0.82919436
-0.612152497	-0.829284237
-0.599467878	-0.829360655
-0.586461055	-0.829420326
-0.573148988	-0.829464417
-0.559531676	-0.829494358
-0.545609119	-0.829508667
-0.531364359	-0.82950819
-0.516814354	-0.829493881
-0.501976063	-0.829466059
-0.486832527	-0.829424406
-0.471383745	-0.829371624
-0.455663635	-0.829305541
-0.439655239	-0.829228382
-0.423375513	-0.829139776
-0.406824459	-0.8290402
-0.390002076	-0.82893045
-0.37294228	-0.828811797
-0.355628114	-0.828682386
-0.338093493	-0.828543171
-0.320321459	-0.828398497
-0.302345929	-0.828243649
-0.284166902	-0.828082601
-0.265801336	-0.827915564
-0.247283149	-0.827741002
-0.22859538	-0.827560717
-0.209771948	-0.82737545
-0.190829809	-0.827184672
-0.171802879	-0.826988595
-0.15269116	-0.826787642
-0.133545524	-0.826581337
-0.114365973	-0.826371004
-0.095186421	-0.826157491
-0.076040786	-0.825937779
-0.056962982	-0.825715999
-0.037986927	-0.825488496
-0.019129578	-0.82525527
-0.00044181	-0.825021355
0.01805942	-0.824782194
0.036323237	-0.824537362
0.054332683	-0.824289456
0.072019927	-0.82403551
0.089351051	-0.8237769
0.106309098	-0.823513732
0.122826237	-0.823244629
0.138885508	-0.822971286
0.154419079	-0.822689677
0.169426951	-0.822404728
0.183824333	-0.822111831
0.197594268	-0.821816443
0.21068588	-0.821511198
0.223082213	-0.821202191
0.234715434	-0.820886188
0.245551626	-0.820561707
0.255556874	-0.820233145
0.264697261	-0.819897799
0.272904956	-0.819554293
0.280129085	-0.819205699
0.286369646	-0.818850587
0.291541851	-0.81848938
0.295645698	-0.818124305
0.298664231	-0.817751705
0.30058049	-0.817375396
0.301411434	-0.816995005
0.301174022	-0.81660868
0.29988521	-0.816221188
0.297561957	-0.815829087
0.294221222	-0.815433381
0.28989692	-0.81503492
0.284606009	-0.814635187
0.278382406	-0.814233652
0.271260026	-0.813827931
0.263289744	-0.813423429
0.254471559	-0.81301474
0.244873304	-0.812607959
0.234528895	-0.812200382
0.22345529	-0.811795933
0.211720321	-0.81138947
0.199357905	-0.810986822
0.186384998	-0.810590269
0.172869435	-0.810195941
0.158845129	-0.809809563
0.144362957	-0.809429967
0.129456833	-0.809057685
0.114177632	-0.808694253
0.098559271	-0.808339618
0.082635664	-0.807994575
0.066440729	-0.807661561
0.050008381	-0.807339729
0.033389495	-0.807028337
0.016601028	-0.806728974
-0.000340062	-0.806444132
-0.017365941	-0.806172485
-0.034493569	-0.805914829
-0.051655113	-0.805673919
-0.068850573	-0.805445674
-0.086046034	-0.805235394
-0.103224536	-0.805038787
-0.120335205	-0.804857919
-0.137378043	-0.80469332
-0.154353049	-0.804542764
-0.171209348	-0.804405828
-0.187946941	-0.804285532
-0.204548869	-0.804177265
-0.221015133	-0.804079756
-0.237311817	-0.803997245
-0.253421962	-0.803923954
-0.269379484	-0.803866244
-0.285116552	-0.803816589
-0.30068404	-0.803775942
-0.316014115	-0.803747909
-0.331157651	-0.803727665
-0.346063775	-0.803716324
-0.360749444	-0.803711926
-0.375214658	-0.803715688
-0.389459418	-0.803727612
-0.403466765	-0.803747008
-0.417253658	-0.803772816
-0.430803138	-0.803804135
-0.444115205	-0.803839641
-0.457223776	-0.803882778
-0.470094934	-0.803929148
-0.482745637	-0.803981241
-0.495192844	-0.804034341
-0.507402638	-0.804094118
-0.519408936	-0.80415575
-0.531211737	-0.804219501
-0.542794083	-0.804286698
-0.554172933	-0.804356173
-0.565331328	-0.804427608
-0.576269269	-0.804498673
-0.586986755	-0.804574084
-0.597483786	-0.804647957
-0.607760363	-0.8047266
-0.617799527	-0.804804713
-0.627618236	-0.804885052
-0.637199533	-0.804966821
-0.646543417	-0.805048909
-0.655649889	-0.805132798
-0.664535906	-0.805216847
-0.67318451	-0.805303492
-0.681578743	-0.805390084
-0.689752522	-0.805477524
-0.69767193	-0.805565705
-0.705370884	-0.805652191
-0.712815467	-0.805740956
-0.720022637	-0.805829297
-0.726992394	-0.805916472
-0.733724739	-0.806002587
-0.740219671	-0.806087854
-0.746477191	-0.806172591
-0.75248034	-0.806257541
-0.758246076	-0.80633984
-0.763774399	-0.806422246
-0.76906531	-0.806503432
-0.77410185	-0.806582923
-0.778900978	-0.806662785
-0.783462692	-0.806742276
-0.787786994	-0.806821767
-0.791873884	-0.806900834
-0.795740319	-0.806982285
-0.799352383	-0.807064055
-0.802743992	-0.80714752
-0.805898189	-0.807232045
-0.808831931	-0.80731567
-0.811562177	-0.807402315
-0.81405501	-0.807490709
-0.816344346	-0.807580374
-0.818413228	-0.807674492
-0.820278613	-0.8077658
-0.821940502	-0.807861613
-0.823415852	-0.807958274
-0.824687706	-0.808057055
-0.825773021	-0.808156259
-0.826671797	-0.808256524
-0.827384035	-0.808357901
-0.827926693	-0.808461557
-0.828316728	-0.808563305
-0.828520224	-0.808666484
-0.828588057	-0.808768657
-0.828486308	-0.808870458
-0.828248896	-0.808971729
-0.827858861	-0.809072153
-0.827333161	-0.809170615
-0.826688755	-0.809269926
-0.825925643	-0.809367011
-0.825043825	-0.809464625
-0.8240433	-0.809561339
-0.822957985	-0.809656781
-0.821770921	-0.809752382
-0.820499068	-0.809848566
-0.819159382	-0.809942895
-0.817734906	-0.810038814
-0.816259556	-0.810131607
-0.814716374	-0.810225565
-0.813122317	-0.810321749
-0.811494345	-0.810417032
-0.809815498	-0.810513216
-0.808119693	-0.810610512
-0.80640693	-0.810711148
-0.80467721	-0.810812313
-0.802947489	-0.81091634
-0.80120081	-0.811024395
-0.799471089	-0.81113494
-0.797741368	-0.811249142
-0.796028605	-0.811367106
-0.794332801	-0.811489151
-0.792653954	-0.811616284
-0.791009023	-0.811747232
-0.789381051	-0.81188385
-0.787803952	-0.812024019
-0.78626077	-0.812170017
-0.784768462	-0.812320361
-0.783327028	-0.812474679
-0.781953426	-0.812632919
-0.780647656	-0.812794921
-0.779409719	-0.812960951
-0.778239614	-0.813129101
-0.777171257	-0.813300112
-0.77618769	-0.813477959
-0.775271955	-0.813658351
-0.774474927	-0.813839431
-0.773762689	-0.814023161
-0.773135241	-0.814210812
-0.7726265	-0.814402809
-0.772202549	-0.814595336
-0.771863388	-0.814793533
-0.771625975	-0.814994168
-0.771490311	-0.815197187
-0.771439437	-0.815401426
-0.771490311	-0.81561054
-0.771625975	-0.815819707
-0.77184643	-0.816030516
-0.772168633	-0.816241114
-0.772575626	-0.816453249
-0.773067409	-0.816665807
-0.773627025	-0.816878366
-0.774288389	-0.817086526
-0.775000627	-0.817296223
-0.775814613	-0.817500567
-0.776679473	-0.817703958
-0.777629124	-0.817901519
-0.778646607	-0.818094894
-0.779731922	-0.81828228
-0.780885069	-0.818463837
-0.782106049	-0.818639353
-0.78339486	-0.818806761
-0.784734546	-0.818965372
-0.786125106	-0.819116616
-0.787583498	-0.819258534
-0.789092764	-0.819392767
-0.790652904	-0.819517091
-0.792263919	-0.819633254
-0.793925808	-0.81973993
-0.795621612	-0.819836856
-0.797368291	-0.819925144
-0.799165844	-0.820001985
-0.800997313	-0.820073686
-0.802862699	-0.820133251
-0.804762	-0.820184602
-0.806695217	-0.820228004
-0.808662351	-0.820263033
-0.810646442	-0.820288841
-0.81266445	-0.820309191
-0.814682458	-0.8203182
-0.816734381	-0.820322121
-0.818803263	-0.820315338
-0.820906061	-0.820303573
-0.823008859	-0.82028386
-0.825128615	-0.820257469
-0.827248371	-0.820223182
-0.829402043	-0.820184284
-0.831569281	-0.820138179
-0.833746695	-0.82008598
-0.83593937	-0.820027634
-0.838140525	-0.819963035
-0.84035355	-0.819892288
-0.842571662	-0.819815394
-0.844794862	-0.819731504
-0.847016367	-0.819641839
-0.849236175	-0.819546556
-0.8514492	-0.819444012
-0.853653746	-0.819334792
-0.855849814	-0.819219583
-0.858030618	-0.819097167
-0.860197857	-0.818967809
-0.862348137	-0.818832728
-0.864479764	-0.818689856
-0.866591041	-0.818541685
-0.868678576	-0.818384929
-0.870744067	-0.818221655
-0.87278412	-0.818050114
-0.874798736	-0.817871206
-0.876786219	-0.817689172
-0.878746569	-0.817497811
-0.880678091	-0.817300197
-0.882580784	-0.81709633
-0.884454648	-0.816886368
-0.886296292	-0.816673279
-0.88810402	-0.816452931
-0.889876136	-0.816229509
-0.891610944	-0.816002642
-0.893306749	-0.815772012
-0.894958463	-0.815541648
-0.896566085	-0.815309322
-0.898127922	-0.815075619
-0.899642275	-0.814843718
-0.901105755	-0.814614202
-0.90251836	-0.814384261
-0.903878396	-0.814160415
-0.905184165	-0.813940596
-0.906435669	-0.813726872
-0.907629516	-0.81351956
-0.908767401	-0.813319243
-0.909845932	-0.813127829
-0.910865111	-0.812944629
-0.911824937	-0.81277367
-0.912722017	-0.812612357
-0.913556353	-0.812463179
-0.914326249	-0.812325395
-0.915030008	-0.8121998
-0.91566763	-0.812087505
-0.916235725	-0.811987983
-0.916737683	-0.811903193
-0.917166722	-0.811832287
-0.917527928	-0.811775795
-0.917817911	-0.811732658
-0.918034974	-0.811702717
-0.918182509	-0.811687084
-0.918257124	-0.811687349
-0.918262211	-0.811697682
-0.918194379	-0.811722589
-0.918053627	-0.811757671
-0.917843348	-0.811804836
-0.917561844	-0.811864507
-0.917209117	-0.811932657
-0.916785165	-0.812012254
-0.916293382	-0.812100277
-0.915732071	-0.812198316
-0.915101231	-0.812304674
-0.91440256	-0.812419936
-0.913636056	-0.812543677
-0.912800024	-0.812674678
-0.911897856	-0.812811349
-0.910929552	-0.812958407
-0.909893415	-0.813108486
-0.908791142	-0.813267839
-0.907622732	-0.813431961
-0.906389882	-0.813603608
-0.905092592	-0.813778011
-0.903730861	-0.813960151
-0.90230808	-0.814147908
-0.900824251	-0.814338792
-0.899279373	-0.814538526
-0.897675142	-0.814739267
-0.896013253	-0.81494854
-0.894295403	-0.815164861
-0.892524983	-0.81538256
-0.890698601	-0.815607148
-0.888823041	-0.815835976
-0.886899998	-0.816067824
-0.884927778	-0.81630635
-0.882913161	-0.816546942
-0.88085615	-0.816791191
-0.878760136	-0.817042276
-0.876628509	-0.817293891
-0.874462966	-0.817550381
-0.872268595	-0.817809098
-0.870047091	-0.818071523
-0.867803541	-0.818337924
-0.865541338	-0.818604589
-0.863263872	-0.818873798
-0.860976231	-0.819147247
-0.858681808	-0.819420377
-0.856382296	-0.819697111
-0.854084481	-0.819974163
-0.851791753	-0.820251374
-0.849507504	-0.820530069
-0.847236821	-0.820809347
-0.844984793	-0.821085127
-0.842754809	-0.821363981
-0.840553655	-0.821639762
-0.838384721	-0.821916072
-0.836251398	-0.822187718
-0.834158775	-0.82245661
-0.832110243	-0.82272407
-0.830114281	-0.822990152
-0.828164105	-0.823249133
-0.826264804	-0.823502815
-0.824433335	-0.823752204
-0.82265274	-0.82399587
-0.820939977	-0.824231375
-0.819278089	-0.824462164
-0.81770099	-0.824681929
-0.816174766	-0.824896343
-0.814699416	-0.825099627
-0.813308856	-0.82529385
-0.81196917	-0.825477898
-0.810697317	-0.825650287
-0.809476337	-0.825813455
-0.80832319	-0.825962739
-0.807220917	-0.826101901
-0.806186476	-0.826228397
-0.805185951	-0.826342122
-0.804253258	-0.826444612
-0.80337144	-0.826533006
-0.802540496	-0.826608628
-0.801760426	-0.826672645
-0.801014271	-0.82672442
-0.800318991	-0.826761834
-0.799674586	-0.826785363
-0.799064096	-0.82679734
-0.798487522	-0.826796863
-0.797961823	-0.826781707
-0.797453081	-0.826752348
-0.796978256	-0.82671149
-0.796537347	-0.826654998
-0.796113396	-0.826586212
-0.795706403	-0.826502164
-0.795333326	-0.826406457
-0.794977207	-0.826298243
-0.794621088	-0.826175774
-0.794281927	-0.826039209
-0.793959724	-0.825892787
-0.793620563	-0.825730361
-0.79329836	-0.82555617
-0.792976157	-0.825369472
-0.792653954	-0.825170374
-0.792314793	-0.824958292
-0.791958674	-0.82473593
-0.791602555	-0.824502386
-0.791246436	-0.82425872
-0.790856401	-0.82400117
-0.790466366	-0.823736836
-0.790059373	-0.823461215
-0.789635422	-0.823178174
-0.789194512	-0.822885913
-0.788753603	-0.82258618
-0.788295736	-0.822279239
-0.787820911	-0.821964932
-0.787346085	-0.821646015
-0.786854302	-0.821320526
-0.786362518	-0.820991275
-0.785870735	-0.820656672
-0.785378952	-0.820319313
-0.784904126	-0.819978509
-0.784429301	-0.81963426
-0.783971434	-0.819288369
-0.783530525	-0.818940835
-0.783106573	-0.818592453
-0.782716538	-0.81824333
-0.782360419	-0.817893517
-0.782038216	-0.817544075
-0.781766888	-0.817195799
-0.781529475	-0.816849325
-0.781359894	-0.816505554
-0.781241188	-0.816166128
-0.781190314	-0.815828345
-0.78122423	-0.815495384
-0.78130902	-0.815163801
-0.781495559	-0.814837041
-0.781766888	-0.814512824
-0.782123007	-0.814193324
-0.782563916	-0.813878116
-0.783106573	-0.813564021
-0.783750979	-0.813256922
-0.784497133	-0.812951889
-0.785345036	-0.812649771
-0.786294686	-0.812351839
-0.787329127	-0.812057034
-0.788465316	-0.811764508
-0.789703254	-0.811476539
-0.79104294	-0.811190266
-0.792484374	-0.81090643
-0.794010598	-0.810625722
-0.79563857	-0.810345066
-0.797351333	-0.810065841
-0.799165844	-0.809786828
-0.801065146	-0.809509246
-0.803066195	-0.809230074
-0.805135077	-0.808949313
-0.807288749	-0.808671996
-0.809527211	-0.808392824
-0.811816548	-0.808112486
-0.814190674	-0.80783183
-0.816615675	-0.807549426
-0.819108508	-0.807267021
-0.821669173	-0.806984935
-0.824263754	-0.806700252
-0.826926168	-0.806415886
-0.829622497	-0.806130567
-0.83236631	-0.805842598
-0.835142342	-0.80555463
-0.837943811	-0.805266979
-0.840767326	-0.804976678
-0.843606103	-0.804689716
-0.84645336	-0.804402224
-0.849304007	-0.804115739
-0.852152959	-0.803829201
-0.854993432	-0.803546214
-0.857822035	-0.803262909
-0.860633679	-0.802980822
-0.863423278	-0.802700802
-0.866185744	-0.80242269
-0.868915989	-0.802145002
-0.871612319	-0.801868798
-0.874266253	-0.801595032
-0.876877792	-0.801322749
-0.879441849	-0.80105089
-0.881953336	-0.800779508
-0.884412253	-0.800511677
-0.886813512	-0.800242468
-0.889153723	-0.79997363
-0.891429493	-0.799707071
-0.893637431	-0.79943924
-0.89577584	-0.799171462
-0.897843026	-0.798901511
-0.899833901	-0.798632832
-0.901748465	-0.798364206
-0.903583326	-0.798093937
-0.905336788	-0.797823191
-0.907005459	-0.797552233
-0.908591037	-0.797281699
-0.910090128	-0.797007827
-0.911502734	-0.796732629
-0.912825461	-0.796455895
-0.914060007	-0.796178419
-0.915204675	-0.795900042
-0.916259466	-0.795616472
-0.917222683	-0.795334385
-0.918096023	-0.795048324
-0.918877788	-0.79476025
-0.919567981	-0.79446873
-0.9201666	-0.79417472
-0.920673646	-0.793879597
-0.921090814	-0.793579863
-0.921414712	-0.79327499
-0.921648733	-0.792966035
-0.921792877	-0.792652099
-0.921848838	-0.792334719
-0.921814922	-0.79201082
-0.921692824	-0.791678654
-0.921485936	-0.791343362
-0.921192562	-0.790999908
-0.920814398	-0.790650732
-0.920354834	-0.790292599
-0.919813873	-0.789927259
-0.919193208	-0.789553811
-0.918492841	-0.78917358
-0.917716162	-0.788784711
-0.916864868	-0.788388634
-0.915937263	-0.787986887
-0.91494013	-0.787577033
-0.913871773	-0.78716066
-0.912735584	-0.786737291
-0.911534954	-0.786310107
-0.910269884	-0.785878313
-0.908943764	-0.785442968
-0.907559988	-0.785002907
-0.906118554	-0.784561468
-0.90462455	-0.784117856
-0.903077976	-0.78367382
-0.901483919	-0.783230473
-0.899844076	-0.782788822
-0.898161838	-0.782346694
-0.896440596	-0.781907639
-0.894683742	-0.781469645
-0.892891277	-0.781032392
-0.891068287	-0.7806024
-0.889216468	-0.780171612
-0.887339212	-0.779744905
-0.885438215	-0.77932318
-0.88352026	-0.778904051
-0.881583651	-0.778491123
-0.879633475	-0.778082646
-0.877674821	-0.777677719
-0.875705991	-0.777280371
-0.87373377	-0.776887792
-0.871759854	-0.776501467
-0.869787633	-0.776120335
-0.867818803	-0.775750649
-0.865860149	-0.775384249
-0.863911669	-0.775026329
-0.861980148	-0.774676251
-0.860068976	-0.774333592
-0.858179849	-0.773998459
-0.856319552	-0.773673024
-0.85449317	-0.773352357
-0.852700704	-0.773043774
-0.850952329	-0.772746425
-0.849248046	-0.77245321
-0.847594636	-0.772172077
-0.845997188	-0.77190112
-0.844457397	-0.771640284
-0.84297696	-0.771390788
-0.841562659	-0.771148394
-0.840211102	-0.770917818
-0.838925682	-0.770699324
-0.837708094	-0.770488991
-0.836558339	-0.770289363
-0.835476415	-0.770100917
-0.83446402	-0.76992397
-0.833522848	-0.769756721
-0.832652901	-0.769604576
-0.831854176	-0.769463188
-0.83112498	-0.769332293
-0.830467008	-0.769213693
-0.829876868	-0.769104791
-0.829351169	-0.76901115
-0.828893301	-0.768926254
-0.828503266	-0.768854871
-0.828164105	-0.768793504
-0.827892777	-0.768743902
-0.827655364	-0.76870368
-0.827485783	-0.768675911
-0.827367077	-0.768657734
-0.827282287	-0.768649255
-0.827231413	-0.768649255
-0.827231413	-0.768659483
-0.827265329	-0.768677448
-0.827333161	-0.768704581
-0.827417951	-0.768738338
-0.827536658	-0.768778507
-0.827655364	-0.768825248
-0.827807986	-0.768877924
-0.827960609	-0.768933196
-0.828113231	-0.768995093
-0.828282812	-0.76905964
-0.828452392	-0.76912885
-0.828621973	-0.769200021
-0.828774595	-0.769272357
-0.828927217	-0.769346125
-0.82907984	-0.769422065
-0.829215504	-0.769496521
-0.829334211	-0.769569865
-0.829435959	-0.769642255
-0.829520749	-0.769710352
-0.829605539	-0.769774739
-0.829656414	-0.769833245
-0.829673372	-0.769889736
-0.82969033	-0.769940398
-0.829656414	-0.769981257
-0.829605539	-0.770019942
-0.829520749	-0.770052586
-0.829419001	-0.77007654
-0.829266378	-0.770094876
-0.829096798	-0.770109131
-0.828876343	-0.770116656
-0.828621973	-0.770119518
-0.828350644	-0.770117292
-0.828028441	-0.770112046
-0.827655364	-0.770103514
-0.827265329	-0.770093551
-0.82682442	-0.770081097
-0.826366552	-0.770066948
-0.825857811	-0.770053699
-0.825315153	-0.770038808
-0.82473858	-0.770027043
-0.82412809	-0.770012046
-0.823500642	-0.769999539
-0.82282232	-0.769988835
-0.82212704	-0.769980356
-0.821397844	-0.769973466
-0.820634732	-0.769970605
-0.819854662	-0.769970499
-0.819040676	-0.769975321
-0.818192773	-0.769982581
-0.817344871	-0.769996466
-0.816446095	-0.770010297
-0.815547318	-0.770034462
-0.814631584	-0.770064616
-0.813681933	-0.770097949
-0.812732282	-0.770137695
-0.811765673	-0.770183958
-0.810799065	-0.770236475
-0.809815498	-0.770296252
-0.808831931	-0.770364032
-0.807865323	-0.770437905
-0.806898714	-0.770519039
-0.805932105	-0.770610347
-0.804982455	-0.770705047
-0.80406672	-0.770811247
-0.803150985	-0.770922428
-0.802269167	-0.77104336
-0.801404307	-0.771168479
-0.800573362	-0.771301123
-0.799759376	-0.771440974
-0.798979306	-0.771586972
-0.798233152	-0.77173705
-0.797503956	-0.771893806
-0.796825634	-0.772053477
-0.796181228	-0.772222898
-0.795570738	-0.772392638
-0.794977207	-0.7725672
-0.794434549	-0.772742875
-0.793925808	-0.772924962
-0.793450982	-0.77310477
-0.792993115	-0.773289083
-0.792586122	-0.773476893
-0.792196087	-0.773660994
-0.791839968	-0.773849917
-0.791500807	-0.774035078
-0.791195562	-0.774225432
-0.790907275	-0.774412394
-0.790652904	-0.774596548
-0.79043245	-0.774783776
-0.790228953	-0.774969943
-0.790042415	-0.775152083
-0.789889792	-0.775330991
-0.789771086	-0.775509421
-0.789669338	-0.775684036
-0.789601505	-0.775852716
-0.789567589	-0.776015248
-0.789550631	-0.776175978
-0.789584547	-0.776331038
-0.789635422	-0.776478309
-0.78973717	-0.776621922
-0.789855876	-0.776759388
-0.790025457	-0.776888428
-0.790211995	-0.77701307
-0.79043245	-0.777130928
-0.790703779	-0.777242798
-0.790992065	-0.777347779
-0.791314268	-0.777447938
-0.791670387	-0.777541684
-0.792043464	-0.777628541
-0.792433499	-0.777711583
-0.792840493	-0.777788159
-0.793281402	-0.777858429
-0.793722311	-0.777927374
-0.794197136	-0.777986409
-0.794671962	-0.778040516
-0.795163745	-0.778091337
-0.795655528	-0.778136329
-0.79616427	-0.778175968
-0.796673011	-0.77821158
-0.797181753	-0.778239667
-0.797690494	-0.778266376
-0.798199236	-0.778287202
-0.798724935	-0.778304796
-0.799216718	-0.778318151
-0.79972546	-0.778325623
-0.800217243	-0.778329968
-0.800709027	-0.778330657
-0.80120081	-0.778328273
-0.801658677	-0.77831974
-0.802116544	-0.778307817
-0.802557454	-0.778296476
-0.802981405	-0.778275968
-0.803405356	-0.778255194
-0.803795391	-0.77822875
-0.804168468	-0.778198225
-0.804541545	-0.778164627
-0.804880706	-0.778126472
-0.805202909	-0.77808768
-0.805491196	-0.778043536
-0.805779483	-0.777996001
-0.806033853	-0.777945551
-0.806271266	-0.777892557
-0.806474763	-0.777835906
-0.806678259	-0.777777189
-0.806830882	-0.777714179
-0.806983504	-0.777647884
-0.80710221	-0.777581482
-0.807203959	-0.777507927
-0.807271791	-0.77743363
-0.807339623	-0.777353715
-0.807373539	-0.777270832
-0.807390497	-0.777183339
-0.807390497	-0.777092879
-0.807356581	-0.776998232
-0.807322665	-0.776900034
-0.807271791	-0.776795159
-0.807203959	-0.77668933
-0.80710221	-0.776575764
-0.806983504	-0.77645727
-0.806864798	-0.776330032
-0.806712175	-0.776197388
-0.806542595	-0.776060505
-0.806339098	-0.775915831
-0.806135602	-0.775761778
-0.805898189	-0.775602319
-0.805660776	-0.775439363
-0.805389448	-0.77526496
-0.805101161	-0.775084728
-0.804795916	-0.774898136
-0.804473713	-0.774704497
-0.804134552	-0.774505982
-0.803778433	-0.774300206
-0.803405356	-0.7740868
-0.803015321	-0.773867776
-0.80259137	-0.773642446
-0.802150461	-0.773410757
-0.801692593	-0.773171966
-0.801217768	-0.772925916
-0.800725985	-0.77267695
-0.800217243	-0.772419188
-0.799674586	-0.772157769
-0.799131928	-0.771890044
-0.798555355	-0.77161633
-0.797978781	-0.771339967
-0.797368291	-0.771060106
-0.796740843	-0.770777437
-0.796113396	-0.770491323
-0.79546899	-0.770201128
-0.794807626	-0.769910033
-0.794146262	-0.769615758
-0.79346794	-0.76932037
-0.79277266	-0.76902318
-0.792094338	-0.768726891
-0.791399059	-0.768429012
-0.790720737	-0.768132035
-0.790042415	-0.76783352
-0.789364093	-0.767534051
-0.788685771	-0.767237762
-0.788041365	-0.766939619
-0.787396959	-0.766642641
-0.786769512	-0.766344073
-0.78617598	-0.766045665
-0.785599406	-0.76574609
-0.785039791	-0.765444926
-0.784514091	-0.765143762
-0.784022308	-0.764841431
-0.783547483	-0.764537882
-0.783106573	-0.764234704
-0.78269958	-0.763927022
-0.782309545	-0.763623897
-0.781936468	-0.763317804
-0.781597307	-0.763008425
-0.781275104	-0.762700372
-0.780969859	-0.762392159
-0.780698531	-0.762080502
-0.78044416	-0.761771389
-0.780206747	-0.761459096
-0.780003251	-0.761150459
-0.779816712	-0.760838643
-0.77966409	-0.760532286
-0.779528425	-0.760228366
-0.779426677	-0.759925346
-0.779358845	-0.759626355
-0.779324929	-0.759332716
-0.779324929	-0.759043422
-0.779358845	-0.758761441
-0.779409719	-0.758485237
-0.779511467	-0.758213697
-0.779630174	-0.757952119
-0.779799754	-0.757695999
-0.779986293	-0.757446133
-0.780206747	-0.757205541
-0.780461118	-0.75697152
-0.780732447	-0.756746189
-0.78105465	-0.75653167
-0.781410769	-0.75631996
-0.781800804	-0.756116887
-0.782207797	-0.755922346
-0.782665664	-0.755732681
-0.783140489	-0.755546673
-0.783649231	-0.755367606
-0.784191888	-0.755190607
-0.784734546	-0.75501827
-0.785328078	-0.754849008
-0.785921609	-0.754680169
-0.786549057	-0.754514934
-0.787193463	-0.754347951
-0.787871785	-0.754183034
-0.788550107	-0.754016474
-0.789262345	-0.753848695
-0.789991541	-0.753682082
-0.790754653	-0.753511866
-0.791517765	-0.753336668
-0.792297835	-0.75315935
-0.793111821	-0.752978111
-0.793925808	-0.752793428
-0.79477371	-0.752601696
-0.795621612	-0.752402439
-0.796503431	-0.752199525
-0.797402207	-0.751988821
-0.798317942	-0.751773083
-0.799250634	-0.751550986
-0.800217243	-0.751315269
-0.80120081	-0.75107473
-0.802201335	-0.75082428
-0.803235776	-0.750564186
-0.804304133	-0.750293705
-0.805389448	-0.750013368
-0.806508679	-0.749727148
-0.807644868	-0.749427997
-0.808798015	-0.749122434
-0.809985079	-0.748808975
-0.8111891	-0.74848513
-0.812393121	-0.748154289
-0.813614101	-0.74781481
-0.814852038	-0.747470403
-0.816089976	-0.747119106
-0.817344871	-0.746762086
-0.818599767	-0.746400456
-0.819854662	-0.746031247
-0.821109558	-0.745659389
-0.822347495	-0.745281066
-0.823585433	-0.744901735
-0.824789454	-0.744518218
-0.825993475	-0.744133218
-0.827180539	-0.743749595
-0.828333686	-0.743362051
-0.829469875	-0.742976096
-0.830565365	-0.74258977
-0.831626939	-0.742207472
-0.832651205	-0.741827506
-0.833633076	-0.74144807
-0.834572551	-0.741072873
-0.835462849	-0.740701916
-0.836305664	-0.740334138
-0.837097605	-0.73997166
-0.837836976	-0.739615541
-0.838523777	-0.739260482
-0.839154616	-0.738913372
-0.83973119	-0.738571561
-0.840251802	-0.73823558
-0.840714756	-0.737905958
-0.841120054	-0.737584815
-0.841467694	-0.737266851
-0.841757676	-0.736961607
-0.84198661	-0.736660071
-0.842157886	-0.736370725
-0.842268113	-0.736086677
-0.842320683	-0.735810579
-0.842315596	-0.73554084
-0.842251155	-0.73527693
-0.842129057	-0.73501832
-0.841952694	-0.734767659
-0.841718673	-0.734521767
-0.841432082	-0.734281705
-0.841091225	-0.734043233
-0.840697798	-0.733810589
-0.840255193	-0.733579536
-0.83976341	-0.733348483
-0.839224144	-0.733122729
-0.838640787	-0.732894855
-0.838011644	-0.732668041
-0.837338409	-0.732441757
-0.836622779	-0.732214943
-0.835863059	-0.731989719
-0.835059247	-0.731763965
-0.834214737	-0.731538211
-0.833329527	-0.731313517
-0.832401921	-0.731089883
-0.831437009	-0.730866195
-0.830434788	-0.73064431
-0.829402043	-0.730423643
-0.828333686	-0.730204673
-0.827231413	-0.729989835
-0.826095224	-0.729779184
-0.824942076	-0.729570918
-0.823755013	-0.729370284
-0.822550992	-0.729173623
-0.821330012	-0.728986025
-0.820109033	-0.728804945
-0.818854137	-0.728630754
-0.817599242	-0.728467215
-0.816344346	-0.728312154
-0.815089451	-0.728167746
-0.813834555	-0.728033354
-0.812562702	-0.727907122
-0.811307806	-0.727791807
-0.810069869	-0.727687356
-0.808831931	-0.727590695
-0.80762791	-0.727506276
-0.806423889	-0.72742864
-0.805253783	-0.727359271
-0.804117594	-0.727300713
-0.802998363	-0.727249203
-0.801930006	-0.727205589
-0.800912523	-0.727169818
-0.799928956	-0.727141201
-0.798996264	-0.727121223
-0.798114445	-0.727106649
-0.797300459	-0.727100025
-0.796537347	-0.727100714
-0.795859025	-0.72711126
-0.795231577	-0.727128483
-0.794671962	-0.727155404
-0.794197136	-0.727190963
-0.793807101	-0.727233994
-0.793484898	-0.727285027
-0.793247486	-0.727344486
-0.793094863	-0.727410675
-0.793027031	-0.727487834
-0.793043989	-0.727572678
-0.793145737	-0.727665099
-0.793332276	-0.727765628
-0.793620563	-0.727873153
-0.79399364	-0.727988627
-0.794451507	-0.72811099
-0.795011123	-0.728236532
-0.79563857	-0.728373097
-0.796367766	-0.728511888
-0.797181753	-0.728657198
-0.798063571	-0.72880717
-0.799013222	-0.728963979
-0.800047663	-0.729124392
-0.801132978	-0.729287878
-0.802303083	-0.72946032
-0.80354102	-0.729632497
-0.804829832	-0.729810769
-0.806169518	-0.729993863
-0.807560078	-0.730180242
-0.80901847	-0.730370702
-0.81049382	-0.730565137
-0.812003086	-0.730762539
-0.813546268	-0.73096487
-0.815106409	-0.73117409
-0.816683507	-0.731386966
-0.818243648	-0.731605142
-0.819803788	-0.731827346
-0.821363928	-0.732057021
-0.822890153	-0.732292579
-0.824399419	-0.732534125
-0.825874769	-0.732780123
-0.827299245	-0.733034282
-0.828689805	-0.733295118
-0.830029491	-0.733562154
-0.83130304	-0.733832741
-0.832513845	-0.734112178
-0.83365173	-0.734399087
-0.834711607	-0.734689175
-0.835686695	-0.734985252
-0.836568514	-0.73528896
-0.837353671	-0.735591873
-0.838035385	-0.735899397
-0.838608567	-0.736209464
-0.839069826	-0.73651969
-0.839410682	-0.736828486
-0.839629441	-0.737137652
-0.839721015	-0.737443798
-0.839683707	-0.737744856
-0.839510735	-0.73804247
-0.839200403	-0.738332453
-0.838751014	-0.73861703
-0.838159179	-0.738894135
-0.837423199	-0.739165411
-0.836541381	-0.739426724
-0.835510332	-0.73967818
-0.834330051	-0.739921475
-0.83300054	-0.740152899
-0.831518407	-0.740375261
-0.829876868	-0.740582839
-0.828096273	-0.740780453
-0.826163056	-0.740965031
-0.824077216	-0.741135512
-0.821821796	-0.741289618
-0.819413753	-0.741432172
-0.816853088	-0.741559834
-0.814122842	-0.74166773
-0.811239974	-0.741760575
-0.808187525	-0.7418389
-0.804965496	-0.741898359
-0.801573887	-0.741940489
-0.798012697	-0.74196635
-0.794264969	-0.74197218
-0.790330702	-0.741963701
-0.786226854	-0.741935296
-0.78191951	-0.741890304
-0.777408669	-0.741828937
-0.772677374	-0.741749393
-0.76775954	-0.741653739
-0.762604294	-0.741541286
-0.757211635	-0.741414207
-0.751598521	-0.741269639
-0.745747995	-0.741108697
-0.739660056	-0.740932386
-0.733300788	-0.740743569
-0.72668715	-0.740537264
-0.719802182	-0.740317445
-0.712645886	-0.740086763
-0.705218261	-0.739840341
-0.697485392	-0.73958189
-0.689481193	-0.739311886
-0.68117175	-0.739030117
-0.672557062	-0.738735577
-0.663637129	-0.738435473
-0.654394993	-0.738126995
-0.644830655	-0.737807018
-0.634927155	-0.737482378
-0.624684494	-0.737152014
-0.614085715	-0.73681529
-0.603113858	-0.736471731
-0.59180284	-0.736126582
-0.580101788	-0.735773483
-0.5680107	-0.735419325
-0.555546535	-0.735062093
-0.542675377	-0.734702689
-0.529414184	-0.73434286
-0.515745997	-0.733983137
-0.501670818	-0.733625058
-0.48715473	-0.733267243
-0.472231648	-0.732911654
-0.456867657	-0.732558449
-0.441079715	-0.732209803
-0.424850863	-0.731860891
-0.408181103	-0.731517278
-0.391087391	-0.73117409
-0.373535812	-0.730836731
-0.355560281	-0.730501544
-0.337143842	-0.73016816
-0.318286493	-0.729836948
-0.299022151	-0.729507591
-0.279333858	-0.72918242
-0.259221614	-0.728856508
-0.238702377	-0.72853245
-0.217793104	-0.728209664
-0.196493797	-0.727886719
-0.174821412	-0.727562556
-0.15277595	-0.727243003
-0.130391328	-0.726919899
-0.107667544	-0.726597431
-0.084621558	-0.726273108
-0.061287284	-0.725952283
-0.037681682	-0.725626053
-0.01382171	-0.725301306
0.010258718	-0.724976665
0.034525684	-0.724649799
0.058979188	-0.724327119
0.083568357	-0.724001631
0.108276232	-0.72367805
0.133034981	-0.723355264
0.157844605	-0.723034916
0.182654228	-0.722711759
0.207429935	-0.722395227
0.232103894	-0.722082192
0.256676105	-0.721769528
0.281078735	-0.721460891
0.305260911	-0.721156335
0.329205674	-0.720855224
0.352845192	-0.7205592
0.376145549	-0.72026927
0.399055871	-0.719983209
0.421525284	-0.719706793
0.443502914	-0.719431755
0.464954844	-0.719163606
0.485813242	-0.718904466
0.506027235	-0.718651155
0.525528989	-0.718403673
0.544301548	-0.718166261
0.562243162	-0.717930968
0.579302957	-0.717704684
0.595447019	-0.717487939
0.610607513	-0.717277023
0.62469965	-0.717073526
0.637672557	-0.716877979
0.6494584	-0.716688261
0.660006305	-0.716505432
0.669282357	-0.716328962
0.677252639	-0.716164681
0.683900194	-0.71600093
0.689208063	-0.715847248
0.693210162	-0.715700455
0.695804743	-0.715559491
0.697330968	-0.715427006
0.697330968	-0.715300881
0.696143904	-0.715179525
0.693684987	-0.715064528
0.689971175	-0.71495748
0.685019425	-0.714851492
0.678863654	-0.714756103
0.671554736	-0.714662304
0.663126586	-0.714574334
0.653613121	-0.714490604
0.643099132	-0.714411113
0.631635492	-0.714333212
0.619273075	-0.714258491
0.606062756	-0.714187479
0.592072367	-0.714119117
0.577352782	-0.714049165
0.561954875	-0.713982922
0.54592952	-0.71391668
0.529310634	-0.713854677
0.51214909	-0.713791084
0.494478804	-0.713730141
0.476350652	-0.713670788
0.457798548	-0.713611965
0.438839451	-0.713554732
0.419507277	-0.713499618
0.399835941	-0.713443974
0.379842404	-0.71339098
0.359577537	-0.713339576
0.339041341	-0.713288172
0.318267733	-0.713241008
0.297273671	-0.713193843
0.276076111	-0.713146679
0.254708972	-0.713102164
0.233172251	-0.713059769
0.211499867	-0.713018963
0.189691818	-0.712980808
0.16778202	-0.712942122
0.145804391	-0.712901847
0.123758929	-0.712865811
0.101662593	-0.712825536
0.0795493	-0.7127842
0.057436006	-0.712744985
0.03533967	-0.712701
0.01327725	-0.712654895
-0.008751253	-0.712606141
-0.030678009	-0.712554207
-0.052536932	-0.712498033
-0.074260191	-0.71243868
-0.095864743	-0.712372438
-0.117299715	-0.712300366
-0.138582065	-0.712224055
-0.159677876	-0.712138735
-0.18057019	-0.712043876
-0.201259008	-0.711942657
-0.221710413	-0.71183296
-0.241941364	-0.711712134
-0.261917944	-0.711584948
-0.281623195	-0.711442925
-0.301057117	-0.711291892
-0.320202753	-0.71113397
-0.339060101	-0.71096227
-0.357612205	-0.710777321
-0.375859064	-0.710581774
-0.39378372	-0.710374038
-0.411369216	-0.710154643
-0.428632508	-0.70992094
-0.445573597	-0.709676638
-0.462158568	-0.709420678
-0.478421335	-0.709149879
-0.494327984	-0.708866361
-0.509912429	-0.708571185
-0.525140756	-0.708265941
-0.540029921	-0.707945327
-0.554562968	-0.707613586
-0.568756854	-0.707272835
-0.582577662	-0.706919366
-0.59605931	-0.706557417
-0.609184839	-0.706180631
-0.621954249	-0.705795895
-0.634367539	-0.70540056
-0.646424711	-0.704996747
-0.658125764	-0.704585514
-0.669470697	-0.704167922
-0.680459512	-0.703742381
-0.691092208	-0.703313661
-0.701385743	-0.702879111
-0.711323159	-0.702439261
-0.720904455	-0.701995703
-0.730163549	-0.701551084
-0.739066524	-0.701103815
-0.747630338	-0.700653367
-0.755854991	-0.700205039
-0.763757441	-0.69975777
-0.771337688	-0.699311032
-0.778578775	-0.698865883
-0.785514616	-0.698428153
-0.792128255	-0.697992014
-0.798436648	-0.697564353
-0.804439797	-0.697144111
-0.810154659	-0.696727049
-0.815564276	-0.696326415
-0.820685606	-0.695929491
-0.825552566	-0.695541576
-0.830131239	-0.695163729
-0.83444367	-0.694799661
-0.838501731	-0.694447252
-0.842308813	-0.694106501
-0.845871698	-0.693780058
-0.849198867	-0.693465275
-0.852293711	-0.693171689
-0.855166404	-0.692890291
-0.857820339	-0.692627441
-0.860260602	-0.69237837
-0.862495672	-0.692149966
-0.864530638	-0.691937991
-0.866370586	-0.691744563
-0.8680223	-0.691567563
-0.869492563	-0.691412291
-0.870786462	-0.691272387
-0.871909085	-0.691153151
-0.87286891	-0.691055642
-0.873667634	-0.690971912
-0.87431204	-0.690913619
-0.874810606	-0.690870164
-0.875166725	-0.690846846
-0.87538718	-0.690841017
-0.875478754	-0.690853735
-0.875446533	-0.690882352
-0.875298998	-0.690927927
-0.87503954	-0.69098887
-0.874674942	-0.691063061
-0.874210292	-0.691150501
-0.873654068	-0.69125013
-0.873007966	-0.691363537
-0.872277074	-0.691484363
-0.871469871	-0.691617377
-0.870589748	-0.691758871
-0.869640098	-0.691907784
-0.868626007	-0.692062526
-0.867554258	-0.692223098
-0.866424852	-0.692391088
-0.865246268	-0.692561199
-0.864016809	-0.692736079
-0.86274326	-0.692910959
-0.861427315	-0.693089018
-0.860072367	-0.693265488
-0.858678416	-0.693442487
-0.857250548	-0.693617367
-0.85579046	-0.693788008
-0.854301544	-0.693956528
-0.85278719	-0.694119749
-0.8512474	-0.694277141
-0.849687259	-0.694431883
-0.848105073	-0.694579736
-0.846507625	-0.69472176
-0.844889828	-0.694857954
-0.843256768	-0.69498673
-0.84160675	-0.695108086
-0.839938078	-0.695223082
-0.838252448	-0.69533172
-0.836546468	-0.695431878
-0.834821835	-0.695523558
-0.833075156	-0.695607288
-0.831306432	-0.695684129
-0.829520749	-0.695752491
-0.827706238	-0.695811315
-0.825857811	-0.695863249
-0.823992426	-0.695905644
-0.822110082	-0.69594062
-0.820193823	-0.695968177
-0.818260606	-0.695987784
-0.81631043	-0.696000503
-0.814326339	-0.696005802
-0.812308331	-0.695999443
-0.810273365	-0.695987784
-0.808221442	-0.695962347
-0.806135602	-0.695930021
-0.804015846	-0.695886036
-0.801879132	-0.695831452
-0.799708502	-0.69576468
-0.797520914	-0.695688899
-0.795316367	-0.695597749
-0.793077905	-0.695494411
-0.790822485	-0.695375705
-0.788567065	-0.69524746
-0.786277728	-0.695104376
-0.783988392	-0.694944864
-0.781682097	-0.694771044
-0.779375803	-0.694584506
-0.777086466	-0.694382599
-0.774780172	-0.694164794
-0.772490836	-0.693928971
-0.770201499	-0.69368096
-0.767929121	-0.69341864
-0.765656743	-0.693138302
-0.76341828	-0.692842066
-0.761179818	-0.692533642
-0.758958314	-0.692208259
-0.756753768	-0.691868039
-0.754583138	-0.691513509
-0.752429466	-0.691145202
-0.750275793	-0.690759406
-0.748156038	-0.690361422
-0.746036282	-0.68994807
-0.743933484	-0.689518289
-0.741847644	-0.68907367
-0.739778762	-0.688614743
-0.737726838	-0.688139388
-0.735691873	-0.687645485
-0.733673865	-0.687138863
-0.731689774	-0.686614753
-0.729705682	-0.686076335
-0.727772465	-0.685520429
-0.725856205	-0.684950215
-0.723956904	-0.684365163
-0.722108477	-0.683765802
-0.720293966	-0.683150012
-0.718513371	-0.682520975
-0.71678365	-0.681876569
-0.715104803	-0.681220505
-0.713476831	-0.680550662
-0.711899732	-0.67986863
-0.710390466	-0.67917388
-0.708949032	-0.678471181
-0.70757543	-0.677754704
-0.706286618	-0.677032927
-0.705082597	-0.676298961
-0.703963366	-0.675557047
-0.702928925	-0.674811952
-0.701979274	-0.6740552
-0.701131372	-0.673294207
-0.700385218	-0.672528445
-0.699723854	-0.671758974
-0.699164239	-0.670982613
-0.698706371	-0.670207313
-0.698333294	-0.669428832
-0.698078923	-0.668648762
-0.697909343	-0.667867632
-0.697841511	-0.667089682
-0.697858469	-0.666310141
-0.697994133	-0.665533781
-0.698214588	-0.66475901
-0.698519833	-0.663987419
-0.698909868	-0.663216358
-0.699401651	-0.662447946
-0.699961267	-0.661681654
-0.700605673	-0.660919602
-0.701334869	-0.66015861
-0.702131897	-0.659400267
-0.702996757	-0.658641394
-0.70392945	-0.657885171
-0.704946933	-0.657128949
-0.70601529	-0.656374845
-0.707134521	-0.655622862
-0.708321584	-0.654867169
-0.709559522	-0.654115186
-0.710848333	-0.653362142
-0.712188019	-0.652612809
-0.713578579	-0.651862415
-0.714986097	-0.651112021
-0.716444489	-0.650363218
-0.717919839	-0.649616004
-0.719446063	-0.648871439
-0.720972288	-0.648130055
-0.722532428	-0.64738973
-0.724092568	-0.646655764
-0.725669667	-0.645923389
-0.727263723	-0.645195783
-0.728840822	-0.644475065
-0.730434878	-0.643759118
-0.731995018	-0.643051119
-0.733572117	-0.64235001
-0.735115299	-0.64165526
-0.736641523	-0.640969519
-0.73815079	-0.640291197
-0.739609182	-0.639619765
-0.741050616	-0.638955221
-0.742458134	-0.638303926
-0.743814777	-0.63766005
-0.745120547	-0.637025183
-0.746375443	-0.636399855
-0.747579464	-0.635784066
-0.748715653	-0.635178346
-0.749800968	-0.634582165
-0.750835409	-0.633997112
-0.751802018	-0.633421068
-0.752700794	-0.632855623
-0.753548697	-0.632300247
-0.754328767	-0.63175494
-0.755057963	-0.631219172
-0.755719327	-0.630694214
-0.756329816	-0.630179537
-0.756889432	-0.629669736
-0.757398173	-0.629169474
-0.757839083	-0.62867716
-0.758246076	-0.62819216
-0.758602195	-0.627711718
-0.758924398	-0.627237952
-0.759178768	-0.626766571
-0.759399223	-0.626298529
-0.759585762	-0.625832183
-0.759721426	-0.625366473
-0.759806216	-0.624901822
-0.759840132	-0.624434999
-0.759840132	-0.623967063
-0.759806216	-0.623500134
-0.759704468	-0.623029336
-0.759585762	-0.62255308
-0.759399223	-0.622076664
-0.759178768	-0.621594261
-0.75890744	-0.621106929
-0.758602195	-0.620615146
-0.758229118	-0.620119017
-0.757822125	-0.619621669
-0.757364257	-0.619116796
-0.756838558	-0.618609115
-0.756278942	-0.61809873
-0.755668453	-0.617582994
-0.755007089	-0.617066091
-0.754294851	-0.616545002
-0.753531739	-0.616024549
-0.752717752	-0.61549832
-0.75186985	-0.614971243
-0.750971073	-0.614442258
-0.750038381	-0.613908291
-0.749037856	-0.613371993
-0.748020373	-0.612834582
-0.746952016	-0.612293408
-0.745849743	-0.611746882
-0.744713554	-0.611196752
-0.743543449	-0.610644026
-0.742356385	-0.610086689
-0.741135406	-0.609527815
-0.739897468	-0.608965921
-0.738642573	-0.6084009
-0.737370719	-0.607834448
-0.736098866	-0.607267573
-0.734810054	-0.606700326
-0.733504285	-0.606132125
-0.732198515	-0.605559791
-0.730892745	-0.604987139
-0.729586976	-0.604415653
-0.728281206	-0.603844432
-0.726975436	-0.603271197
-0.725686625	-0.602697697
-0.724397813	-0.602125469
-0.72312596	-0.601554035
-0.721854106	-0.600982867
-0.720616169	-0.600415939
-0.719395189	-0.599848904
-0.718191168	-0.599287168
