-0.607387286
-0.606963335
-0.606607216
-0.606301971
-0.606064558
-0.60587802
-0.605759313
-0.605674523
-0.605640607
-0.605657565
-0.605725397
-0.605827145
-0.60596281
-0.606149348
-0.606369803
-0.606624174
-0.60691246
-0.607234663
-0.607590782
-0.607980817
-0.608387811
-0.608811762
-0.609252671
-0.60969358
-0.610151448
-0.610609315
-0.61108414
-0.611558965
-0.612016833
-0.612491658
-0.612949525
-0.613424351
-0.613882218
-0.614340085
-0.614797953
-0.61525582
-0.615696729
-0.616154596
-0.616595506
-0.617053373
-0.61751124
-0.617969107
-0.618460891
-0.618935716
-0.619444458
-0.619953199
-0.620495856
-0.621055472
-0.621615088
-0.622225577
-0.622853025
-0.623514389
-0.624192711
-0.624921907
-0.625668061
-0.626448131
-0.627262117
-0.628093062
-0.628957922
-0.629839741
-0.630772433
-0.631722084
-0.632705651
-0.633723133
-0.634757574
-0.635808973
-0.636894288
-0.637979603
-0.639064918
-0.640133275
-0.64121859
-0.642269989
-0.64330443
-0.644321913
-0.645288522
-0.646238172
-0.647136949
-0.647984851
-0.64878188
-0.649511076
-0.650189398
-0.650799887
-0.651342545
-0.65181737
-0.652224363
-0.652546566
-0.652800937
-0.652970517
-0.653072266
-0.653106182
-0.653055308
-0.652936601
-0.652750063
-0.652478734
-0.652156531
-0.651766496
-0.651325587
-0.650799887
-0.650240272
-0.649629782
-0.64895146
-0.648239222
-0.647493068
-0.64669604
-0.645882053
-0.645017193
-0.644152333
-0.643253556
-0.642337822
-0.641422087
-0.640489394
-0.63957366
-0.638640967
-0.637725233
-0.63679254
-0.635876806
-0.634944113
-0.63401142
-0.63306177
-0.632061245
-0.631043762
-0.629975405
-0.628839216
-0.627652153
-0.626380299
-0.625006697
-0.623548305
-0.621971207
-0.620275402
-0.618460891
-0.616476799
-0.614340085
-0.612033791
-0.609524
-0.60682767
-0.60387697
-0.600688857
-0.597246373
-0.593515603
-0.589496546
-0.585155286
-0.580491823
-0.575489199
-0.570113498
-0.564364719
-0.558242864
-0.551697058
-0.544744259
-0.537367508
-0.52953289
-0.521257363
-0.51250701
-0.503264875
-0.493530955
-0.483305253
-0.472553851
-0.461293707
-0.449490906
-0.437162406
-0.424291248
-0.410860474
-0.396904001
-0.382387912
-0.367312208
-0.351693847
-0.335515869
-0.318795235
-0.301531942
-0.283725993
-0.265394343
-0.246536994
-0.227170904
-0.207279115
-0.1869125
-0.166071059
-0.144754794
-0.122997619
-0.100799535
-0.078194458
-0.055182387
-0.03179724
-0.008055973
0.016024454
0.040410126
0.065067127
0.089995457
0.115144241
0.140479564
0.165984467
0.191625035
0.217350393
0.243143583
0.268936773
0.294696047
0.320387489
0.345960225
0.371346422
0.396529122
0.421423536
0.445995747
0.47019488
0.493970063
0.517253462
0.539994204
0.562158372
0.583695092
0.604536532
0.624648776
0.64398095
0.66248218
0.680118549
0.696822226
0.71259321
0.727346712
0.74108273
0.753631685
0.764993577
0.775168405
0.78415617
0.791787292
0.798061769
0.803149184
0.806879954
0.809254081
0.810441144
0.810441144
0.8090845
0.806540793
0.802810023
0.798061769
0.791956872
0.785004073
0.77686421
0.767706864
0.757532036
0.746509305
0.734638672
0.721920136
0.708353698
0.694193729
0.679338479
0.663906656
0.647915217
0.631431995
0.614490906
0.597159781
0.579438622
0.561378301
0.543029694
0.5243928
0.505535451
0.486474606
0.467227222
0.447827216
0.428308503
0.408705
0.389016707
0.369294498
0.349538373
0.329765289
0.309992206
0.290253039
0.27053083
0.250842537
0.231222076
0.211652489
0.192150735
0.172716812
0.153384638
0.134103338
0.114923787
0.095829025
0.076802096
0.057859957
0.03898565
0.020196134
0.001474449
-0.017162445
-0.035731507
-0.05419882
-0.072598302
-0.090896035
-0.109108978
-0.127237131
-0.145246577
-0.163171233
-0.180994141
-0.198698343
-0.21626688
-0.233716711
-0.251030877
-0.268175463
-0.28513351
-0.301921977
-0.318523906
-0.33490538
-0.351066399
-0.366990005
-0.382676199
-0.39812498
-0.413319391
-0.428242473
-0.442894226
-0.457291608
-0.471400703
-0.485255428
-0.498804908
-0.512100017
-0.525089882
-0.537808417
-0.550221708
-0.562346712
-0.574183429
-0.585697943
-0.596890254
-0.607794279
-0.618359143
-0.628618761
-0.638556177
-0.648154432
-0.657447442
-0.666401291
-0.675032937
-0.683325422
-0.691295705
-0.698926826
-0.706235744
-0.71322246
-0.719870014
-0.726178408
-0.732147641
-0.737794671
-0.743102539
-0.748088205
-0.75273471
-0.757059012
-0.761044154
-0.764707092
-0.768064785
-0.771083318
-0.773796605
-0.77618769
-0.77827353
-0.780037167
-0.781512517
-0.782682622
-0.783547483
-0.784141014
-0.784429301
-0.784446259
-0.78417493
-0.783632273
-0.782818287
-0.78174993
-0.780427202
-0.778867061
-0.77705255
-0.775000627
-0.77271129
-0.770218457
-0.767488212
-0.764554469
-0.761417231
-0.758076495
-0.754549221
-0.750835409
-0.7469181
-0.742848169
-0.738591699
-0.734182606
-0.729586976
-0.72485568
-0.719954805
-0.714901307
-0.709712144
-0.704370359
-0.698909868
-0.693296754
-0.687581892
-0.681731366
-0.675779091
-0.669725068
-0.663586255
-0.657345694
-0.6510373
-0.644661074
-0.638233974
-0.631756
-0.62524411
-0.618698303
-0.612152497
-0.605589733
-0.599043926
-0.592515078
-0.586003188
-0.579542172
-0.57313203
-0.566772762
-0.560498285
-0.554291639
-0.548186742
-0.542200551
-0.536316109
-0.530567331
-0.524954217
-0.519493726
-0.514168899
-0.509013653
-0.504044945
-0.499245817
-0.494650186
-0.490258052
-0.486086373
-0.482135147
-0.478421335
-0.474944935
-0.471722906
-0.46873829
-0.466008044
-0.463515211
-0.461276749
-0.4592757
-0.457529021
-0.456002796
-0.454730943
-0.453696502
-0.452882516
-0.452288984
-0.451915907
-0.451729368
-0.451746326
-0.451949823
-0.452305942
-0.452814683
-0.453459089
-0.454222201
-0.455087062
-0.456070629
-0.457138986
-0.458275175
-0.459496154
-0.460784966
-0.462124652
-0.463532169
-0.464973603
-0.466448954
-0.46795822
-0.469501402
-0.471044584
-0.472604725
-0.474181823
-0.47577588
-0.477369936
-0.478963993
-0.480558049
-0.482152106
-0.48376312
-0.485374135
-0.486985149
-0.488613122
-0.490241094
-0.491902983
-0.493564871
-0.495260676
-0.496990397
-0.498737076
-0.500534629
-0.50234914
-0.504231483
-0.506147743
-0.508114876
-0.510132884
-0.512201766
-0.514321522
-0.516492152
-0.518713656
-0.520986034
-0.523326245
-0.525700371
-0.528125372
-0.530618205
-0.533161912
-0.535739535
-0.538384991
-0.541064362
-0.54377765
-0.546524854
-0.549289015
-0.552087093
-0.554919087
-0.557751081
-0.560583075
-0.563432027
-0.566280979
-0.569146889
-0.572012799
-0.574861751
-0.577727661
-0.580610529
-0.583476439
-0.586359307
-0.589259133
-0.592142001
-0.595024869
-0.597907737
-0.600790605
-0.603656515
-0.606522425
-0.609388335
-0.612237287
-0.615086239
-0.617918233
-0.620733269
-0.623548305
-0.626363341
-0.629161419
-0.631959497
-0.634757574
-0.637538694
-0.640336772
-0.64313485
-0.645932928
-0.648747964
-0.651546041
-0.654344119
-0.657142197
-0.659940275
-0.662721395
-0.665485556
-0.66823276
-0.670946048
-0.673625419
-0.676253916
-0.678848498
-0.681375247
-0.683817206
-0.68620829
-0.688514585
-0.690719131
-0.692838887
-0.694856894
-0.696790112
-0.698587665
-0.700300428
-0.701877526
-0.703335918
-0.704675604
-0.705879625
-0.706947982
-0.707897633
-0.708711619
-0.709372983
-0.709915641
-0.710322634
-0.710577004
-0.710712669
-0.710695711
-0.710543088
-0.71027176
-0.709864766
-0.709322109
-0.708660745
-0.707863717
-0.706931024
-0.705896583
-0.704726478
-0.703454625
-0.702064065
-0.700554798
-0.698960742
-0.697264937
-0.695467384
-0.693585041
-0.691617907
-0.689582942
-0.687463186
-0.685275598
-0.683020177
-0.680713883
-0.678356714
-0.675948672
-0.673489755
-0.670996922
-0.668470173
-0.665909508
-0.663331884
-0.660737303
-0.658125764
-0.655514224
-0.652902685
-0.650308104
-0.647713523
-0.645152857
-0.64260915
-0.640116317
-0.6376574
-0.635266316
-0.632926105
-0.630636769
-0.628432223
-0.626312467
-0.624260543
-0.622310368
-0.620444982
-0.618664387
-0.616985541
-0.615391484
-0.613899176
-0.612491658
-0.611151972
-0.609897077
-0.608726972
-0.60760774
-0.606556341
-0.605572775
-0.60465704
-0.603775222
-0.602944277
-0.602147249
-0.601367179
-0.600621025
-0.599874871
-0.599111759
-0.598348647
-0.597568576
-0.59675459
-0.595923646
-0.595041827
-0.594109135
-0.593125568
-0.592091127
-0.591005812
-0.589835707
-0.588614727
-0.587325916
-0.585952314
-0.584527838
-0.583018572
-0.581424515
-0.579779585
-0.578049864
-0.576252311
-0.574386926
-0.572453708
-0.570469617
-0.568434651
-0.566331853
-0.564161223
-0.561956677
-0.559718214
-0.557428878
-0.555105626
-0.552748457
-0.55037433
-0.547983246
-0.545575203
-0.543150202
-0.540742159
-0.538317159
-0.535909116
-0.533518031
-0.531143905
-0.528786736
-0.526463483
-0.524174147
-0.521918727
-0.519714181
-0.517543551
-0.515440753
-0.513388829
-0.511387779
-0.509437604
-0.507538303
-0.505706833
-0.503943196
-0.502230434
-0.500585503
-0.499025363
-0.497550013
-0.496142495
-0.494819767
-0.493598788
-0.49244564
-0.491394241
-0.490444591
-0.48957973
-0.48879966
-0.488121338
-0.487544765
-0.487069939
-0.486696862
-0.486425533
-0.486238995
-0.486171163
-0.486222037
-0.486357701
-0.486612072
-0.486985149
-0.487459974
-0.488053506
-0.488782702
-0.489613646
-0.490580255
-0.49166557
-0.49288655
-0.494209277
-0.495650711
-0.497210852
-0.498889698
-0.500653335
-0.50251872
-0.504468896
-0.506503862
-0.508623618
-0.510811206
-0.513066626
-0.515355962
-0.517713131
-0.520121174
-0.522546175
-0.525022049
-0.527514882
-0.530024673
-0.532551422
-0.535078172
-0.537621879
-0.540148628
-0.542675377
-0.545185168
-0.547661043
-0.55011996
-0.552528002
-0.554902129
-0.55724234
-0.559514718
-0.561719264
-0.563872936
-0.565958776
-0.567976784
-0.569893043
-0.57174147
-0.573505107
-0.575166996
-0.576744094
-0.578219444
-0.579610004
-0.580915774
-0.582102837
-0.58320511
-0.584222593
-0.585138328
-0.585969272
-0.586715426
-0.587393748
-0.587970322
-0.588496021
-0.58893693
-0.589326965
-0.589666126
-0.589954413
-0.590208784
-0.590429238
-0.590615777
-0.590819273
-0.590988854
-0.591192351
-0.591395847
-0.59163326
-0.59188763
-0.592158959
-0.592464204
-0.592803365
-0.593159484
-0.593549519
-0.593956512
-0.594397421
-0.594855289
-0.595330114
-0.595821897
-0.596330639
-0.596856338
-0.597382038
-0.597907737
-0.598433437
-0.598959136
-0.599467878
-0.599959661
-0.600434486
-0.600892354
-0.601333263
-0.601740256
-0.602130291
-0.60248641
-0.602808613
-0.6030969
-0.603368229
-0.603622599
-0.603826096
-0.604012634
-0.604165257
-0.604283963
-0.604368753
-0.604436586
-0.604453544
-0.604436586
-0.604402669
-0.604317879
-0.604216131
-0.604063509
-0.603893928
-0.603690431
-0.603453019
-0.60318169
-0.602893403
-0.6025712
-0.602232039
-0.60187592
-0.601485885
-0.60109585
-0.600705815
-0.600298822
-0.599891829
-0.599501794
-0.599111759
-0.59875564
-0.598399521
-0.59806036
-0.597755115
-0.59744987
-0.597178541
-0.596924171
-0.596686758
-0.596483261
-0.596296723
-0.596127142
-0.59597452
-0.595821897
-0.595686233
-0.595567527
-0.595465778
-0.59536403
-0.595262282
-0.595177492
-0.595109659
-0.595058785
-0.595007911
-0.594990953
-0.594973995
-0.594990953
-0.595041827
-0.595109659
-0.595211408
-0.595347072
-0.595516653
-0.595703191
-0.595940604
-0.596211933
-0.596517177
-0.596856338
-0.597229415
-0.597636409
-0.598094276
-0.598586059
-0.599111759
-0.599688332
-0.60031578
-0.600994102
-0.60170634
-0.60248641
-0.603317354
-0.604199173
-0.605114907
-0.606098474
-0.607115957
-0.608184314
-0.609286587
-0.610439734
-0.611626798
-0.612864735
-0.614136589
-0.615442358
-0.616799002
-0.618172604
-0.61959708
-0.621055472
-0.62254778
-0.624090963
-0.625668061
-0.627296034
-0.628957922
-0.630653727
-0.632400406
-0.634197959
-0.636029428
-0.637894813
-0.639794114
-0.641710374
-0.643660549
-0.645644641
-0.647628732
-0.649629782
-0.65164779
-0.653682755
-0.655717721
-0.657752687
-0.65980461
-0.661839576
-0.663874542
-0.665909508
-0.667944473
-0.669962481
-0.67196353
-0.673981538
-0.67596563
-0.677949721
-0.679933813
-0.681900946
-0.68386808
-0.685818255
-0.687751473
-0.68968469
-0.691617907
-0.693517209
-0.69541651
-0.697298853
-0.69914728
-0.700995708
-0.702810219
-0.704607772
-0.706371409
-0.70810113
-0.709796934
-0.711441865
-0.713052879
-0.714596062
-0.716071412
-0.717495888
-0.718852532
-0.720141343
-0.721328407
-0.72243068
-0.723448162
-0.724380855
-0.725194841
-0.725924037
-0.726534527
-0.72702631
-0.727433304
-0.727704632
-0.727874213
-0.727925087
-0.727857255
-0.727687674
-0.727382429
-0.726958478
-0.726432779
-0.725771415
-0.725008303
-0.724126484
-0.72312596
-0.722023686
-0.720785749
-0.719463021
-0.718004629
-0.716461447
-0.714816516
-0.713069837
-0.71122141
-0.709288193
-0.707270185
-0.705184345
-0.703013715
-0.700775253
-0.698485917
-0.696145706
-0.693754621
-0.691312663
-0.688853746
-0.686377871
-0.68386808
-0.681358289
-0.678848498
-0.676338707
-0.673828916
-0.671336083
-0.668877166
-0.666435207
-0.664010206
-0.66163608
-0.659278911
-0.656972617
-0.654700238
-0.652478734
-0.650325062
-0.648205306
-0.64617034
-0.644186249
-0.642286947
-0.640455478
-0.638708799
-0.637029953
-0.635435896
-0.633909672
-0.632485196
-0.631128552
-0.629873657
-0.628686593
-0.627601278
-0.626583796
-0.625668061
-0.624837117
-0.624090963
-0.623412641
-0.622836067
-0.622344284
-0.621937291
-0.62159813
-0.621343759
-0.621191136
-0.621106346
-0.621089388
-0.621174178
-0.621326801
-0.621547255
-0.6218525
-0.622225577
-0.622666487
-0.623175228
-0.623751802
-0.624396207
-0.625091487
-0.625854599
-0.626685544
-0.627567362
-0.628517013
-0.629534496
-0.630619811
-0.631756
-0.632960021
-0.634214917
-0.635537645
-0.636928204
-0.638369638
-0.639878905
-0.641456003
-0.643083976
-0.644762822
-0.646509501
-0.648324012
-0.650189398
-0.652105657
-0.654089748
-0.656124714
-0.658227512
-0.660381184
-0.66258573
-0.664858109
-0.667164403
-0.66953853
-0.671946572
-0.674388531
-0.676881364
-0.679391155
-0.68195182
-0.684529444
-0.687124025
-0.689752522
-0.69238102
-0.695043433
-0.697722804
-0.700402176
-0.703098506
-0.705811793
-0.708525081
-0.711255326
-0.713968614
-0.716681902
-0.719378231
-0.722074561
-0.724753932
-0.727399388
-0.730027885
-0.732622466
-0.735200089
-0.737743796
-0.740253587
-0.742729462
-0.745154463
-0.747562506
-0.749919674
-0.752259885
-0.754532263
-0.756787684
-0.75899223
-0.761145902
-0.7632487
-0.765300624
-0.767284715
-0.769217932
-0.771100276
-0.772897829
-0.774644508
-0.776323354
-0.777917411
-0.779443635
-0.780885069
-0.782258671
-0.783547483
-0.784768462
-0.785887693
-0.786939092
-0.787922659
-0.788804477
-0.789618464
-0.79034766
-0.791009023
-0.791585597
-0.79207738
-0.79251829
-0.792874409
-0.793179654
-0.793417066
-0.793586647
-0.793705353
-0.793756227
-0.793773185
-0.793722311
-0.793637521
-0.793518814
-0.793349234
-0.793145737
-0.792925283
-0.792653954
-0.792365667
-0.792060422
-0.791738219
-0.791399059
-0.79104294
-0.790669862
-0.790296785
-0.78990675
-0.789499757
-0.789109722
-0.788702729
-0.788312694
-0.787905701
-0.787515666
-0.787125631
-0.786735595
-0.786362518
-0.785989441
-0.785633322
-0.785277203
-0.784938042
-0.78461584
-0.784310595
-0.78400535
-0.783734021
-0.783496608
-0.783276154
-0.783072657
-0.782920035
-0.782801328
-0.782716538
-0.782682622
-0.78269958
-0.782767412
-0.782903077
-0.783089615
-0.783327028
-0.783649231
-0.784039266
-0.784514091
-0.785056749
-0.785684197
-0.786396435
-0.787210421
-0.788109197
-0.789092764
-0.790195037
-0.791365142
-0.792653954
-0.794027556
-0.795502906
-0.797063046
-0.798724935
-0.800471614
-0.802303083
-0.804202384
-0.806203434
-0.808255358
-0.810392072
-0.812596618
-0.814852038
-0.817175291
-0.819549417
-0.821974418
-0.824450293
-0.826960084
-0.829503791
-0.832067848
-0.834660733
-0.837272273
-0.839892291
-0.842520788
-0.84514759
-0.847772696
-0.850387627
-0.852988991
-0.855575093
-0.858140846
-0.860681161
-0.863192648
-0.86567361
-0.868120657
-0.870530395
-0.872897739
-0.875222687
-0.877501849
-0.879731832
-0.881910941
-0.884039176
-0.886113145
-0.888131153
-0.890091503
-0.891994196
-0.893837536
-0.895619826
-0.897341068
-0.899001261
-0.900598709
-0.902135108
-0.903607067
-0.905016281
-0.906361054
-0.907643082
-0.908862366
-0.910017209
-0.911109307
-0.912140356
-0.913108661
-0.914015916
-0.914863819
-0.915650672
-0.916378172
-0.917048015
-0.917660201
-0.918214729
-0.918714991
-0.919157596
-0.919547631
-0.919885097
-0.920169992
-0.920404013
-0.920590551
-0.920729607
-0.920822877
-0.920872055
-0.920878838
-0.920844922
-0.920770307
-0.920656688
-0.920507457
-0.920320918
-0.92010216
-0.919847789
-0.919562894
-0.919247474
-0.918899834
-0.918523365
-0.918119764
-0.917685638
-0.917224379
-0.916735987
-0.916218767
-0.915676109
-0.915104623
-0.9145077
-0.913885339
-0.913237542
-0.912566003
-0.911872419
-0.911155094
-0.910417419
-0.909659394
-0.908879324
-0.908078904
-0.90725983
-0.906420407
-0.905560634
-0.904682207
-0.903781735
-0.902859217
-0.901918045
-0.900953132
-0.899969566
-0.898963953
-0.897936296
-0.896888288
-0.895818236
-0.894726137
-0.893613689
-0.892480892
-0.891326049
-0.890150856
-0.888955314
-0.887741118
-0.886508268
-0.885256764
-0.883986606
-0.882697794
-0.881392025
-0.880067601
-0.878727915
-0.877371272
-0.87599767
-0.874610501
-0.873209767
-0.871795466
-0.870369294
-0.868932947
-0.867486426
-0.866031425
-0.864569642
-0.86310277
-0.861630812
-0.860157158
-0.858683503
-0.857209849
-0.855739586
-0.854272715
-0.852814323
-0.851361018
-0.849917889
-0.848483238
-0.847058762
-0.845647852
-0.844250509
-0.842870124
-0.841506697
-0.840161924
-0.838842588
-0.837546993
-0.836281923
-0.835049073
-0.83385353
-0.832695296
-0.831582848
-0.830514491
-0.829503791
-0.828537182
-0.827621448
-0.826773545
-0.825993475
-0.825264279
-0.824602915
-0.824026342
-0.823500642
-0.823059733
-0.822686656
-0.822381411
-0.822160957
-0.821991376
-0.821906586
-0.82187267
-0.821923544
-0.82204225
-0.822211831
-0.822449243
-0.82273753
-0.823076691
-0.823483684
-0.823924593
-0.824416377
-0.824942076
-0.825501692
-0.826095224
-0.826739629
-0.827400993
-0.828079315
-0.828791553
-0.829537707
-0.830283861
-0.831065627
-0.83186096
-0.832669859
-0.83349402
-0.834330051
-0.835174562
-0.836030944
-0.836894108
-0.83776236
-0.838637395
-0.839515822
-0.840399337
-0.841282851
-0.842169757
-0.843058358
-0.84394696
-0.844837258
-0.845725859
-0.846616157
-0.84750815
-0.848401839
-0.849297224
-0.850196001
-0.85110156
-0.852012207
-0.852933029
-0.85386233
-0.854805198
-0.855761632
-0.856735024
-0.857727069
-0.858742856
-0.859782385
-0.860850742
-0.861949623
-0.863084117
-0.864254222
-0.865466722
-0.866719922
-0.8680223
-0.869372161
-0.870772895
-0.872224504
-0.873728683
-0.87528204
-0.87688288
-0.878531202
-0.880221919
-0.881953336
-0.88372206
-0.885523005
-0.887354474
-0.889209685
-0.891088636
-0.892984546
-0.894897414
-0.896820456
-0.898751978
-0.900690283
-0.902631979
-0.904575371
-0.906515372
-0.908453677
-0.910385198
-0.912306545
-0.914219413
-0.916118714
-0.918002753
-0.91987153
-0.921721653
-0.923549731
-0.925357458
-0.927141445
-0.92890169
-0.930636499
-0.93234587
-0.934026412
-0.935679822
-0.937302707
-0.938896763
-0.940461991
-0.941994999
-0.943497482
-0.944966049
-0.946402395
-0.947806522
-0.949175036
-0.95051133
-0.951812012
-0.953077083
-0.954308237
-0.955502084
-0.95666371
-0.957788028
-0.958878431
-0.959934917
-0.960954096
-0.961941054
-0.962890705
-0.963808135
-0.964689954
-0.965537856
-0.966351842
-0.967133608
-0.967883154
-0.968598784
-0.969283889
-0.969938469
-0.970562525
-0.971157753
-0.971724152
-0.972263418
-0.972773855
-0.973260551
-0.973720114
-0.974155936
-0.97456632
-0.97495466
-0.975319258
-0.97566181
-0.975984013
-0.976284171
-0.976563978
-0.976825132
-0.977065937
-0.977289783
-0.977496671
-0.977686601
-0.977861269
-0.978020675
-0.978164818
-0.978297091
-0.978415797
-0.978524329
-0.97862099
-0.97870578
-0.978782091
-0.978849923
-0.978907581
-0.978956759
-0.978999154
-0.97903307
-0.979061899
-0.979082248
-0.979099207
-0.979109381
-0.979114469
-0.979114469
-0.979109381
-0.979100902
-0.979089032
-0.979072074
-0.97905342
-0.979031374
-0.979007633
-0.978982196
-0.978955063
-0.97892793
-0.978899102
-0.978870273
-0.978841444
-0.978812616
-0.978785483
-0.97875835
-0.978732913
-0.978709171
-0.97868543
-0.978663385
-0.978641339
-0.97862099
-0.978602336
-0.978585378
-0.97856842
-0.978553157
-0.978537895
-0.978522633
-0.978507371
-0.978493804
-0.978478542
-0.97846328
-0.978446322
-0.978429364
-0.978412406
-0.978393752
-0.978373402
-0.978351357
-0.978329311
-0.97830557
-0.978278437
-0.978251304
-0.978222475
-0.978190255
-0.978158035
-0.978122423
-0.978085115
-0.978044416
-0.978002021
-0.97795793
-0.977912143
-0.977862965
-0.977812091
-0.977757825
-0.977701863
-0.977645902
-0.977586549
-0.977527196
-0.977464451
-0.977403402
-0.977338961
-0.977276216
-0.977211776
-0.977147335
-0.977084591
-0.977021846
-0.976960797
-0.976901444
-0.976843786
-0.976787825
-0.976733559
-0.976682685
-0.976635202
-0.976589416
-0.97654702
-0.976508017
-0.976472405
-0.976440185
-0.97640966
-0.976382527
-0.976355394
-0.976331653
-0.976309608
-0.976287562
-0.976267213
-0.976246863
-0.976228209
-0.976207859
-0.97618751
-0.976168856
-0.976148506
-0.976126461
-0.976104415
-0.97608237
-0.976058629
-0.976033192
-0.976007754
-0.975978926
-0.975950097
-0.975919573
-0.975885657
-0.97585174
-0.975816129
-0.975778821
-0.975739817
-0.975699118
-0.975656723
-0.975612632
-0.975566845
-0.975519363
-0.975470184
-0.975421006
-0.975368436
-0.975315866
-0.9752616
-0.975205639
-0.975149677
-0.975093716
-0.975036058
-0.974978401
-0.974922439
-0.974864782
-0.974807125
-0.974749467
-0.97469181
-0.974634153
-0.974578191
-0.97452223
-0.974467964
-0.974413698
-0.974359432
-0.974306862
-0.974255988
-0.97420681
-0.974159327
-0.974111845
-0.974067754
-0.974025359
-0.973984659
-0.973945656
-0.973908348
-0.973874432
-0.973842212
-0.973813383
-0.97378625
-0.973764205
-0.973743855
-0.973728593
-0.973715026
-0.973706547
-0.973699764
-0.973698068
-0.97370146
-0.973706547
-0.973716722
-0.973730289
-0.973748943
-0.973770988
-0.973798121
-0.973828645
-0.973864257
-0.973901565
-0.973942264
-0.973986355
-0.974033838
-0.97408132
-0.97413389
-0.97418646
-0.974240726
-0.974296688
-0.974352649
-0.974412002
-0.97446966
-0.974529013
-0.974590062
-0.974649415
-0.974710464
-0.974769817
-0.974830866
-0.974890219
-0.974951268
-0.975010621
-0.97507167
-0.975131023
-0.975190377
-0.975251426
-0.975312475
-0.975373524
-0.975434572
-0.975497317
-0.975560062
-0.975622807
-0.975687247
-0.975753384
-0.975821216
-0.975889048
-0.975958576
-0.9760298
-0.976104415
-0.976179031
-0.976255342
-0.976333349
-0.976413052
-0.97649445
-0.976577545
-0.976662335
-0.976748821
-0.976837003
-0.976925185
-0.977015063
-0.97710494
-0.977196514
-0.977289783
-0.977381356
-0.977474626
-0.977567895
-0.977659468
-0.977752738
-0.977844311
-0.977935884
-0.978025762
-0.97811564
-0.978203822
-0.978290308
-0.978376794
-0.978461584
-0.978544678
-0.978626077
-0.978707476
-0.978787178
-0.978865185
-0.978943193
-0.979019504
-0.979095815
-0.97917043
-0.979245046
-0.979319661
-0.979392581
-0.979467196
-0.979540116
-0.979614731
-0.979687651
-0.97976057
-0.97983349
-0.97990641
-0.979977633
-0.980048857
-0.980120081
-0.980189609
-0.980257441
-0.980323578
-0.980388018
-0.980452459
-0.980513508
-0.980574557
-0.98063391
-0.980689871
-0.980745833
-0.980800099
-0.980852669
-0.980903543
-0.980952721
-0.981000204
-0.981047686
-0.981091777
-0.981134172
-0.981176567
-0.981217267
-0.981254574
-0.981291882
-0.981327494
-0.98136141
-0.98139363
-0.981424155
-0.981452984
-0.981478421
-0.981502162
-0.981522512
-0.981541165
-0.981556428
-0.981568298
-0.981578473
-0.98158356
-0.981586952
-0.981586952
-0.981581865
-0.981575081
-0.981564907
-0.98155134
-0.981534382
-0.981512337
-0.981488595
-0.981459767
-0.981427546
-0.981391935
-0.981352931
-0.98130884
-0.981261358
-0.981210483
-0.981156218
-0.981096865
-0.98103412
-0.980967983
-0.980898455
-0.980825536
-0.980749225
-0.980669522
-0.980586427
-0.980499941
-0.980410064
-0.980316794
-0.980220133
-0.980121777
-0.980018333
-0.979913193
-0.979802966
-0.979691042
-0.979574032
-0.97945363
-0.979331532
-0.979204346
-0.979073769
-0.978939801
-0.978802441
-0.978661689
-0.978519241
-0.978373402
-0.978224171
-0.978073245
-0.977918926
-0.977764608
-0.977608594
-0.977450884
-0.977291479
-0.977132073
-0.976972667
-0.976813262
-0.976653856
-0.97649445
-0.976335045
-0.976175639
-0.976016234
-0.975856828
-0.975699118
-0.975541408
-0.975383698
-0.975225989
-0.975069974
-0.97491396
-0.974759642
-0.97460702
-0.974454397
-0.974303471
-0.97415424
-0.974005009
-0.97385917
-0.973715026
-0.973574275
-0.973435219
-0.973297859
-0.97316389
-0.973033313
-0.972907823
-0.97278403
-0.972665323
-0.972551704
-0.972443173
-0.972341425
-0.972244764
-0.972156582
-0.972076879
-0.972005655
-0.971942911
-0.971888645
-0.97184625
-0.971812334
-0.971788592
-0.971775026
-0.971771634
-0.971776722
-0.971790288
-0.971814029
-0.971847945
-0.971888645
-0.971937823
-0.971993785
-0.972058225
-0.972129449
-0.972209152
-0.972293942
-0.972385516
-0.972480481
-0.972582229
-0.972687369
-0.9727959
-0.972909519
-0.973024834
-0.973141844
-0.973263942
-0.97338604
-0.973509834
-0.973637019
-0.973764205
-0.973894782
-0.974025359
-0.974157632
-0.974293296
-0.97442896
-0.974564625
-0.974703681
-0.974842737
-0.974983488
-0.97512424
-0.975266688
-0.975409135
-0.975551583
-0.975695726
-0.97583987
-0.975982317
-0.976126461
-0.976268908
-0.976411356
-0.976552108
-0.97669286
-0.976831916
-0.976969276
-0.97710494
-0.977237213
-0.97736779
-0.977496671
-0.977620465
-0.977742563
-0.977859573
-0.977973192
-0.978083419
-0.978190255
-0.978290308
-0.978386969
-0.978480238
-0.978566724
-0.978649818
-0.978727825
-0.978799049
-0.978866881
-0.97892793
-0.978985588
-0.979036462
-0.979082248
-0.979121252
-0.979156864
-0.979183997
-0.979207738
-0.979226392
-0.979238263
-0.979245046
-0.979246742
-0.97924335
-0.979234871
-0.979219609
-0.979200955
-0.979177214
-0.979146689
-0.979112773
-0.979073769
-0.979027983
-0.978978804
-0.978924539
-0.978865185
-0.978802441
-0.978732913
-0.978661689
-0.978583682
-0.978502283
-0.978415797
-0.97832592
-0.978230955
-0.978132598
-0.97803085
-0.977924014
-0.977813787
-0.977701863
-0.977584853
-0.977464451
-0.977340657
-0.977215167
-0.977086286
-0.976955709
-0.976821741
-0.976687772
-0.976550412
-0.976413052
-0.976275692
-0.976136636
-0.975999275
-0.975861915
-0.975724555
-0.975588891
-0.975454922
-0.975322649
-0.975193768
-0.975068279
-0.974946181
-0.974827474
-0.974715551
-0.97460702
-0.974503576
-0.974406915
-0.974317037
-0.974235639
-0.974161023
-0.974094887
-0.974035534
-0.973988051
-0.973947352
-0.973918523
-0.973898173
-0.973889694
-0.97389139
-0.973904957
-0.973928698
-0.973966006
-0.974015184
-0.974076233
-0.974150848
-0.974237334
-0.974335691
-0.974447614
-0.974573104
-0.974713855
-0.974866478
-0.975034363
-0.975217509
-0.975414223
-0.975627894
-0.975856828
-0.976101024
-0.976360482
-0.976636898
-0.976928576
-0.977237213
-0.977561112
-0.977900273
-0.978258087
-0.97863286
-0.979024591
-0.979434976
-0.979862319
-0.980310011
-0.980774662
-0.981261358
-0.981766707
-0.982292407
-0.982840152
-0.983407398
-0.983997199
-0.984608876
-0.985243107
-0.985900231
-0.986580419
-0.987283839
-0.988011
-0.988762072
-0.989536885
-0.990335778
-0.991158413
-0.992004789
-0.992874398
-0.9937669
-0.994682126
-0.995619397
-0.996578375
-0.997558719
-0.998559617
-0.999580611
-1
-1
-1
-1
-1
-1
-1
-1
-1
-1
-1
-1
-1
-1
-1
-1
-1
-1
-1
-1
-1
-1
-1
-1
-1
-1
-1
-1
-1
-1
-1
-1
-1
-1
-1
-1
-1
-1
-1
-1
-1
-1
-1
-1
-1
-1
-1
-1
-1
-1
-1
-1
-1
-1
-1
-1
-1
-1
-1
-1
-1
-1
-1
-1
-1
-1
-1
-1
-1
-0.99918364
-0.99450254
-0.989530441
-0.984259032
-0.978680343
-0.972785725
-0.966568905
-0.960019707
-0.953129653
-0.945893654
-0.938301536
-0.930348212
-0.922023506
-0.913320636
-0.904232819
-0.89475327
-0.884873512
-0.874588456
-0.86389132
-0.852773624
-0.841231977
-0.82924942
-0.816853088
-0.803998888
-0.790686821
-0.776933844
-0.762723
-0.748054289
-0.732927711
-0.717326307
-0.701250078
-0.684715982
-0.667690102
-0.650206356
-0.632264741
-0.613831344
-0.594940079
-0.575573989
-0.555750031
-0.535468207
-0.514728515
-0.493530955
-0.471909445
-0.449847025
-0.427360654
-0.40446729
-0.381166933
-0.357476541
-0.333413071
-0.308993483
-0.284217776
-0.259119866
-0.233716711
-0.208008311
-0.182062498
-0.155845357
-0.129424719
-0.102817542
-0.076040786
-0.049128364
-0.022114195
0.004967807
0.032083725
0.059182685
0.08623077
0.113194066
0.140038655
0.166679747
0.193117343
0.21928361
0.245110717
0.270581704
0.295611782
0.320183993
0.344196588
0.367632609
0.390407267
0.412486645
0.433752036
0.454186484
0.473705196
0.492223384
0.509673215
0.525986856
0.541079519
0.554866411
0.567313618
0.578353307
0.587934604
0.59604055
0.602637231
0.607724645
0.611268877
0.613269926
0.613727794
0.612642479
0.610047897
0.605961008
0.600432685
0.593513801
0.585255232
0.575724809
0.564973407
0.5530519
0.54002812
0.525935982
0.510826362
0.494784049
0.477809044
0.460003094
0.441383158
0.422034026
0.401972655
0.381249922
0.359950614
0.338091691
0.315724026
0.292898494
0.269665969
0.246077325
0.22214952
0.197950387
0.17351384
0.148873798
0.124081132
0.09916976
0.074173599
0.049143521
0.024079526
-0.000950552
-0.025946713
-0.050875043
-0.075718583
-0.100426458
-0.124998669
-0.149418257
-0.173651307
-0.19768086
-0.221489958
-0.245044686
-0.268362002
-0.29139103
-0.31414873
-0.336584226
-0.358714478
-0.380505569
-0.401957499
-0.42305331
-0.443793002
-0.464176575
-0.484170113
-0.503790574
-0.523004042
-0.541844432
-0.56027783
-0.578304234
-0.595940604
-0.613153022
-0.629975405
-0.646373837
-0.662365276
-0.677932763
-0.693110216
-0.707863717
-0.722210225
-0.736166698
-0.74969922
-0.762841707
-0.775594158
-0.787939617
-0.79989504
-0.811460429
-0.82265274
-0.833458408
-0.843892694
-0.853958991
-0.863662386
-0.87300627
-0.881997427
-0.890637552
-0.898935125
-0.906891841
-0.914514483
-0.921808139
-0.928776201
-0.935423755
-0.941757586
-0.947784476
-0.953506121
-0.958931001
-0.964064202
-0.968910812
-0.973477614
-0.977769696
-0.981792144
-0.985553948
-0.989058329
-0.9923119
-0.995320427
-0.998090015
-1
-1
-1
-1
-1
-1
-1
-1
-1
-1
-1
-1
-1
-1
-1
-1
-1
-1
-1
-1
-1
-1
-1
-1
-1
-1
-1
-1
-0.999629094
-0.997770865
-0.995833747
-0.993821505
-0.99173787
-0.989586741
-0.987371172
-0.985094894
-0.982760449
-0.980372756
-0.977934189
-0.975448139
-0.972917998
-0.970347158
-0.967739011
-0.965098643
-0.962426054
-0.959728029
-0.957004567
-0.954260754
-0.951498289
-0.948718865
-0.945925874
-0.943122709
-0.940309369
-0.937489246
-0.934665731
-0.93184052
-0.929015309
-0.926195186
-0.923378454
-0.920571897
-0.91777382
-0.914987612
-0.912216667
-0.909462681
-0.906729043
-0.904015756
-0.901329601
-0.898670579
-0.896042082
-0.893447501
-0.890886835
-0.888363478
-0.885879124
-0.883433774
-0.881032514
-0.878675345
-0.876362268
-0.874094977
-0.871876864
-0.869706234
-0.867584782
-0.865514205
-0.863497893
-0.861535847
-0.859629762
-0.857783031
-0.855997349
-0.854272715
-0.852612522
-0.85101677
-0.84948885
-0.848030458
-0.84664329
-0.845329041
-0.844091104
-0.842929477
-0.841845858
-0.840840246
-0.839917728
-0.839076609
-0.838318584
-0.837641958
-0.837050122
-0.836541381
-0.836115734
-0.835773181
-0.835508636
-0.835325489
-0.835218653
-0.835189824
-0.835237307
-0.835359405
-0.835554422
-0.835824055
-0.836166608
-0.83658208
-0.837070472
-0.837630087
-0.838260927
-0.83896299
-0.839734581
-0.8405757
-0.841486347
-0.842463131
-0.843504355
-0.844606628
-0.845768254
-0.846984146
-0.848252608
-0.849568553
-0.850928588
-0.852325931
-0.853762278
-0.855230845
-0.85672824
-0.858254465
-0.859806126
-0.861381529
-0.862975585
-0.864589991
-0.86621966
-0.86786459
-0.869521391
-0.871186672
-0.872857039
-0.874530799
-0.876202862
-0.87787323
-0.879536814
-0.881190224
-0.882835154
-0.884463127
-0.886075837
-0.887666502
-0.889233426
-0.890774912
-0.892285874
-0.893764616
-0.895207746
-0.896613568
-0.897978691
-0.899303114
-0.900581751
-0.901816297
-0.903001664
-0.904139549
-0.905228256
-0.906264393
-0.907249655
-0.908182348
-0.909060775
-0.90988324
-0.910653135
-0.911367069
-0.912025042
-0.912627052
-0.913173101
-0.913664885
-0.914100707
-0.914480567
-0.914807857
-0.915082577
-0.915303032
-0.915472613
-0.915593015
-0.915662543
-0.915684588
-0.915660847
-0.915589623
-0.915474308
-0.915316599
-0.915116494
-0.914875689
-0.914594186
-0.914273679
-0.91391756
-0.913524133
-0.913098486
-0.912638923
-0.912148835
-0.911629919
-0.91108387
-0.910512384
-0.909918852
-0.909304971
-0.90867074
-0.908021247
-0.907353099
-0.906671386
-0.90597441
-0.905263868
-0.904541455
-0.903807172
-0.903062713
-0.902309776
-0.90154836
-0.900776769
-0.899998394
-0.899211541
-0.898416208
-0.897615789
-0.896808586
-0.895996295
-0.895178917
-0.894356452
-0.893530595
-0.892699651
-0.891865315
-0.891025891
-0.890181381
-0.889331782
-0.888475401
-0.887613932
-0.886747376
-0.885874037
-0.88499561
-0.884113791
-0.883228581
-0.882341675
-0.881451378
-0.88056108
-0.879670783
-0.87877879
-0.8778851
-0.876991411
-0.876096026
-0.87519725
-0.874296778
-0.873394609
-0.872487354
-0.871580098
-0.870669451
-0.869755412
-0.868839678
-0.867920552
-0.866996338
-0.866067037
-0.865132649
-0.864193173
-0.863246914
-0.862297263
-0.861340829
-0.860379308
-0.859412699
-0.858441003
-0.857465916
-0.85648574
-0.855500478
-0.854513519
-0.853523169
-0.852531124
-0.851540774
-0.850553815
-0.849570249
-0.848593465
-0.847623465
-0.846665335
-0.845715684
-0.844774513
-0.843845212
-0.842926086
-0.84201883
-0.841121749
-0.840236539
-0.8393632
-0.838503427
-0.837658916
-0.836829668
-0.836017377
-0.835223741
-0.834447062
-0.833690733
-0.832949666
-0.832225558
-0.831518407
-0.830828215
-0.830148197
-0.829486833
-0.828842427
-0.828214979
-0.82760449
-0.826994
-0.826400468
-0.825840853
-0.825281237
-0.82473858
-0.82421288
-0.823704139
-0.823229314
-0.822754488
-0.822296621
-0.821855712
-0.821431761
-0.821024767
-0.820634732
-0.820261655
-0.819905536
-0.819583333
-0.81926113
-0.818972844
-0.818701515
-0.818447144
-0.818209732
-0.818006235
-0.817802738
-0.8176162
-0.817446619
-0.817293997
-0.817158333
-0.817039626
-0.81692092
-0.816819172
-0.816717423
-0.816632633
-0.816547843
-0.816463053
-0.81639522
-0.81631043
-0.81622564
-0.81614085
-0.816039101
-0.815937353
-0.815818647
-0.815682982
-0.815547318
-0.815377738
-0.815208157
-0.815004661
-0.814784206
-0.814546793
-0.814309381
-0.814021094
-0.813732807
-0.813427562
-0.813105359
-0.81274924
-0.812393121
-0.812037002
-0.811646967
-0.811256932
-0.810849939
-0.810442946
-0.810035953
-0.809612001
-0.80918805
-0.808764099
-0.808340148
-0.807916197
-0.807492246
-0.807085252
-0.806678259
-0.806271266
-0.805881231
-0.805508154
-0.805135077
-0.804795916
-0.804456755
-0.804134552
-0.803846265
-0.803557979
-0.803303608
-0.803049237
-0.802811824
-0.80259137
-0.802387873
-0.802184377
-0.80198088
-0.801794342
-0.801590845
-0.801404307
-0.80120081
-0.800980355
-0.800776859
-0.800539446
-0.800302033
-0.800047663
-0.799759376
-0.799471089
-0.799148886
-0.798792767
-0.79841969
-0.798012697
-0.797588746
-0.797130879
-0.796639095
-0.796130354
-0.795587696
-0.795011123
-0.794417591
-0.793790143
-0.793145737
-0.792484374
-0.791789094
-0.791076856
-0.79034766
-0.789601505
-0.788838393
-0.788075281
-0.787312169
-0.786532099
-0.785752029
-0.784988917
-0.784225804
-0.78347965
-0.782750454
-0.782021258
-0.781325978
-0.780647656
-0.780003251
-0.779392761
-0.778816187
-0.778290488
-0.777798704
-0.777357795
-0.77696776
-0.776645557
-0.776391187
-0.776204648
-0.776068984
-0.776018109
-0.776035068
-0.776136816
-0.776289438
-0.776543809
-0.776849054
-0.777239089
-0.777713914
-0.778239614
-0.778833145
-0.779477551
-0.780189789
-0.780952901
-0.781766888
-0.782631748
-0.783547483
-0.784497133
-0.785497658
-0.786532099
-0.787600456
-0.788719687
-0.789872834
-0.791059898
-0.792263919
-0.793518814
-0.794807626
-0.796113396
-0.79747004
-0.798860599
-0.800268117
-0.801726509
-0.80320186
-0.804711126
-0.806271266
-0.807848365
-0.809459379
-0.81110431
-0.812783156
-0.814478961
-0.816208682
-0.817972319
-0.819752914
-0.821567425
-0.823381936
-0.825230363
-0.82707879
-0.828944176
-0.830804473
-0.832674946
-0.83454881
-0.83642437
-0.838298235
-0.840168707
-0.842035788
-0.843899478
-0.845754688
-0.847604811
-0.849446455
-0.85127962
-0.853104306
-0.854918817
-0.856724849
-0.85851901
-0.860304693
-0.8620802
-0.863843837
-0.865597299
-0.867338891
-0.869066916
-0.870779679
-0.872478875
-0.874162809
-0.875828089
-0.877474716
-0.879099297
-0.880701832
-0.882280626
-0.883833983
-0.885360208
-0.886857603
-0.888327866
-0.889767604
-0.891178514
-0.892558899
-0.893912151
-0.895234879
-0.896528778
-0.897795544
-0.899035177
-0.900249373
-0.901436437
-0.902601455
-0.903742731
-0.904861962
-0.905960844
-0.907039376
-0.908099254
-0.909142173
-0.910168135
-0.911178835
-0.912177664
-0.913166318
-0.914146493
-0.915118189
-0.916086494
-0.917048015
-0.918006145
-0.918960883
-0.919910534
-0.920856793
-0.921796268
-0.922732353
-0.923659958
-0.924579084
-0.925491427
-0.926393595
-0.927285588
-0.928164015
-0.929030571
-0.92988017
-0.930711114
-0.931521709
-0.932308562
-0.933071674
-0.933805958
-0.934509717
-0.935182951
-0.935822269
-0.936425976
-0.936990679
-0.937516378
-0.937997987
-0.938435505
-0.938827235
-0.939168092
-0.939458075
-0.939693792
-0.939873547
-0.939995645
-0.940054998
-0.940053302
-0.93998547
-0.939849806
-0.939644613
-0.939368197
-0.939017166
-0.938591519
-0.938084473
-0.937497725
-0.93682449
-0.93606477
-0.935215171
-0.934272304
-0.933236167
-0.932101674
-0.930867128
-0.929530834
-0.9280894
-0.92654113
-0.924884329
-0.923113909
-0.921231565
-0.919232212
-0.917114152
-0.914873993
-0.912511737
-0.910022296
-0.907402278
-0.904651683
-0.901765423
-0.898738411
-0.895572344
-0.892260437
-0.888800996
-0.885190627
-0.881427637
-0.877506936
-0.873425134
-0.869178839
-0.864762963
-0.860170724
-0.85539873
-0.850440196
-0.845290037
-0.839939773
-0.834384317
-0.828621973
-0.822618824
-0.816412178
-0.80996812
-0.803269692
-0.796350808
-0.789160596
-0.781732971
-0.774034018
-0.766080694
-0.757839083
-0.749343101
-0.740558832
-0.731486277
-0.722142393
-0.712493264
-0.702555848
-0.692313187
-0.68178224
-0.670946048
-0.65980461
-0.64834097
-0.636589044
-0.624514914
-0.612152497
-0.599467878
-0.586461055
-0.573148988
-0.559531676
-0.545609119
-0.531364359
-0.516814354
-0.501976063
-0.486832527
-0.471383745
-0.455663635
-0.439655239
-0.423375513
-0.406824459
-0.390002076
-0.37294228
-0.355628114
-0.338093493
-0.320321459
-0.302345929
-0.284166902
-0.265801336
-0.247283149
-0.22859538
-0.209771948
-0.190829809
-0.171802879
-0.15269116
-0.133545524
-0.114365973
-0.095186421
-0.076040786
-0.056962982
-0.037986927
-0.019129578
-0.00044181
0.01805942
0.036323237
0.054332683
0.072019927
0.089351051
0.106309098
0.122826237
0.138885508
0.154419079
0.169426951
0.183824333
0.197594268
0.21068588
0.223082213
0.234715434
0.245551626
0.255556874
0.264697261
0.272904956
0.280129085
0.286369646
0.291541851
0.295645698
0.298664231
0.30058049
0.301411434
0.301174022
0.29988521
0.297561957
0.294221222
0.28989692
0.284606009
0.278382406
0.271260026
0.263289744
0.254471559
0.244873304
0.234528895
0.22345529
0.211720321
0.199357905
0.186384998
0.172869435
0.158845129
0.144362957
0.129456833
0.114177632
0.098559271
0.082635664
0.066440729
0.050008381
0.033389495
0.016601028
-0.000340062
-0.017365941
-0.034493569
-0.051655113
-0.068850573
-0.086046034
-0.103224536
-0.120335205
-0.137378043
-0.154353049
-0.171209348
-0.187946941
-0.204548869
-0.221015133
-0.237311817
-0.253421962
-0.269379484
-0.285116552
-0.30068404
-0.316014115
-0.331157651
-0.346063775
-0.360749444
-0.375214658
-0.389459418
-0.403466765
-0.417253658
-0.430803138
-0.444115205
-0.457223776
-0.470094934
-0.482745637
-0.495192844
-0.507402638
-0.519408936
-0.531211737
-0.542794083
-0.554172933
-0.565331328
-0.576269269
-0.586986755
-0.597483786
-0.607760363
-0.617799527
-0.627618236
-0.637199533
-0.646543417
-0.655649889
-0.664535906
-0.67318451
-0.681578743
-0.689752522
-0.69767193
-0.705370884
-0.712815467
-0.720022637
-0.726992394
-0.733724739
-0.740219671
-0.746477191
-0.75248034
-0.758246076
-0.763774399
-0.76906531
-0.77410185
-0.778900978
-0.783462692
-0.787786994
-0.791873884
-0.795740319
-0.799352383
-0.802743992
-0.805898189
-0.808831931
-0.811562177
-0.81405501
-0.816344346
-0.818413228
-0.820278613
-0.821940502
-0.823415852
-0.824687706
-0.825773021
-0.826671797
-0.827384035
-0.827926693
-0.828316728
-0.828520224
-0.828588057
-0.828486308
-0.828248896
-0.827858861
-0.827333161
-0.826688755
-0.825925643
-0.825043825
-0.8240433
-0.822957985
-0.821770921
-0.820499068
-0.819159382
-0.817734906
-0.816259556
-0.814716374
-0.813122317
-0.811494345
-0.809815498
-0.808119693
-0.80640693
-0.80467721
-0.802947489
-0.80120081
-0.799471089
-0.797741368
-0.796028605
-0.794332801
-0.792653954
-0.791009023
-0.789381051
-0.787803952
-0.78626077
-0.784768462
-0.783327028
-0.781953426
-0.780647656
-0.779409719
-0.778239614
-0.777171257
-0.77618769
-0.775271955
-0.774474927
-0.773762689
-0.773135241
-0.7726265
-0.772202549
-0.771863388
-0.771625975
-0.771490311
-0.771439437
-0.771490311
-0.771625975
-0.77184643
-0.772168633
-0.772575626
-0.773067409
-0.773627025
-0.774288389
-0.775000627
-0.775814613
-0.776679473
-0.777629124
-0.778646607
-0.779731922
-0.780885069
-0.782106049
-0.78339486
-0.784734546
-0.786125106
-0.787583498
-0.789092764
-0.790652904
-0.792263919
-0.793925808
-0.795621612
-0.797368291
-0.799165844
-0.800997313
-0.802862699
-0.804762
-0.806695217
-0.808662351
-0.810646442
-0.81266445
-0.814682458
-0.816734381
-0.818803263
-0.820906061
-0.823008859
-0.825128615
-0.827248371
-0.829402043
-0.831569281
-0.833746695
-0.83593937
-0.838140525
-0.84035355
-0.842571662
-0.844794862
-0.847016367
-0.849236175
-0.8514492
-0.853653746
-0.855849814
-0.858030618
-0.860197857
-0.862348137
-0.864479764
-0.866591041
-0.868678576
-0.870744067
-0.87278412
-0.874798736
-0.876786219
-0.878746569
-0.880678091
-0.882580784
-0.884454648
-0.886296292
-0.88810402
-0.889876136
-0.891610944
-0.893306749
-0.894958463
-0.896566085
-0.898127922
-0.899642275
-0.901105755
-0.90251836
-0.903878396
-0.905184165
-0.906435669
-0.907629516
-0.908767401
-0.909845932
-0.910865111
-0.911824937
-0.912722017
-0.913556353
-0.914326249
-0.915030008
-0.91566763
-0.916235725
-0.916737683
-0.917166722
-0.917527928
-0.917817911
-0.918034974
-0.918182509
-0.918257124
-0.918262211
-0.918194379
-0.918053627
-0.917843348
-0.917561844
-0.917209117
-0.916785165
-0.916293382
-0.915732071
-0.915101231
-0.91440256
-0.913636056
-0.912800024
-0.911897856
-0.910929552
-0.909893415
-0.908791142
-0.907622732
-0.906389882
-0.905092592
-0.903730861
-0.90230808
-0.900824251
-0.899279373
-0.897675142
-0.896013253
-0.894295403
-0.892524983
-0.890698601
-0.888823041
-0.886899998
-0.884927778
-0.882913161
-0.88085615
-0.878760136
-0.876628509
-0.874462966
-0.872268595
-0.870047091
-0.867803541
-0.865541338
-0.863263872
-0.860976231
-0.858681808
-0.856382296
-0.854084481
-0.851791753
-0.849507504
-0.847236821
-0.844984793
-0.842754809
-0.840553655
-0.838384721
-0.836251398
-0.834158775
-0.832110243
-0.830114281
-0.828164105
-0.826264804
-0.824433335
-0.82265274
-0.820939977
-0.819278089
-0.81770099
-0.816174766
-0.814699416
-0.813308856
-0.81196917
-0.810697317
-0.809476337
-0.80832319
-0.807220917
-0.806186476
-0.805185951
-0.804253258
-0.80337144
-0.802540496
-0.801760426
-0.801014271
-0.800318991
-0.799674586
-0.799064096
-0.798487522
-0.797961823
-0.797453081
-0.796978256
-0.796537347
-0.796113396
-0.795706403
-0.795333326
-0.794977207
-0.794621088
-0.794281927
-0.793959724
-0.793620563
-0.79329836
-0.792976157
-0.792653954
-0.792314793
-0.791958674
-0.791602555
-0.791246436
-0.790856401
-0.790466366
-0.790059373
-0.789635422
-0.789194512
-0.788753603
-0.788295736
-0.787820911
-0.787346085
-0.786854302
-0.786362518
-0.785870735
-0.785378952
-0.784904126
-0.784429301
-0.783971434
-0.783530525
-0.783106573
-0.782716538
-0.782360419
-0.782038216
-0.781766888
-0.781529475
-0.781359894
-0.781241188
-0.781190314
-0.78122423
-0.78130902
-0.781495559
-0.781766888
-0.782123007
-0.782563916
-0.783106573
-0.783750979
-0.784497133
-0.785345036
-0.786294686
-0.787329127
-0.788465316
-0.789703254
-0.79104294
-0.792484374
-0.794010598
-0.79563857
-0.797351333
-0.799165844
-0.801065146
-0.803066195
-0.805135077
-0.807288749
-0.809527211
-0.811816548
-0.814190674
-0.816615675
-0.819108508
-0.821669173
-0.824263754
-0.826926168
-0.829622497
-0.83236631
-0.835142342
-0.837943811
-0.840767326
-0.843606103
-0.84645336
-0.849304007
-0.852152959
-0.854993432
-0.857822035
-0.860633679
-0.863423278
-0.866185744
-0.868915989
-0.871612319
-0.874266253
-0.876877792
-0.879441849
-0.881953336
-0.884412253
-0.886813512
-0.889153723
-0.891429493
-0.893637431
-0.89577584
-0.897843026
-0.899833901
-0.901748465
-0.903583326
-0.905336788
-0.907005459
-0.908591037
-0.910090128
-0.911502734
-0.912825461
-0.914060007
-0.915204675
-0.916259466
-0.917222683
-0.918096023
-0.918877788
-0.919567981
-0.9201666
-0.920673646
-0.921090814
-0.921414712
-0.921648733
-0.921792877
-0.921848838
-0.921814922
-0.921692824
-0.921485936
-0.921192562
-0.920814398
-0.920354834
-0.919813873
-0.919193208
-0.918492841
-0.917716162
-0.916864868
-0.915937263
-0.91494013
-0.913871773
-0.912735584
-0.911534954
-0.910269884
-0.908943764
-0.907559988
-0.906118554
-0.90462455
-0.903077976
-0.901483919
-0.899844076
-0.898161838
-0.896440596
-0.894683742
-0.892891277
-0.891068287
-0.889216468
-0.887339212
-0.885438215
-0.88352026
-0.881583651
-0.879633475
-0.877674821
-0.875705991
-0.87373377
-0.871759854
-0.869787633
-0.867818803
-0.865860149
-0.863911669
-0.861980148
-0.860068976
-0.858179849
-0.856319552
-0.85449317
-0.852700704
-0.850952329
-0.849248046
-0.847594636
-0.845997188
-0.844457397
-0.84297696
-0.841562659
-0.840211102
-0.838925682
-0.837708094
-0.836558339
-0.835476415
-0.83446402
-0.833522848
-0.832652901
-0.831854176
-0.83112498
-0.830467008
-0.829876868
-0.829351169
-0.828893301
-0.828503266
-0.828164105
-0.827892777
-0.827655364
-0.827485783
-0.827367077
-0.827282287
-0.827231413
-0.827231413
-0.827265329
-0.827333161
-0.827417951
-0.827536658
-0.827655364
-0.827807986
-0.827960609
-0.828113231
-0.828282812
-0.828452392
-0.828621973
-0.828774595
-0.828927217
-0.82907984
-0.829215504
-0.829334211
-0.829435959
-0.829520749
-0.829605539
-0.829656414
-0.829673372
-0.82969033
-0.829656414
-0.829605539
-0.829520749
-0.829419001
-0.829266378
-0.829096798
-0.828876343
-0.828621973
-0.828350644
-0.828028441
-0.827655364
-0.827265329
-0.82682442
-0.826366552
-0.825857811
-0.825315153
-0.82473858
-0.82412809
-0.823500642
-0.82282232
-0.82212704
-0.821397844
-0.820634732
-0.819854662
-0.819040676
-0.818192773
-0.817344871
-0.816446095
-0.815547318
-0.814631584
-0.813681933
-0.812732282
-0.811765673
-0.810799065
-0.809815498
-0.808831931
-0.807865323
-0.806898714
-0.805932105
-0.804982455
-0.80406672
-0.803150985
-0.802269167
-0.801404307
-0.800573362
-0.799759376
-0.798979306
-0.798233152
-0.797503956
-0.796825634
-0.796181228
-0.795570738
-0.794977207
-0.794434549
-0.793925808
-0.793450982
-0.792993115
-0.792586122
-0.792196087
-0.791839968
-0.791500807
-0.791195562
-0.790907275
-0.790652904
-0.79043245
-0.790228953
-0.790042415
-0.789889792
-0.789771086
-0.789669338
-0.789601505
-0.789567589
-0.789550631
-0.789584547
-0.789635422
-0.78973717
-0.789855876
-0.790025457
-0.790211995
-0.79043245
-0.790703779
-0.790992065
-0.791314268
-0.791670387
-0.792043464
-0.792433499
-0.792840493
-0.793281402
-0.793722311
-0.794197136
-0.794671962
-0.795163745
-0.795655528
-0.79616427
-0.796673011
-0.797181753
-0.797690494
-0.798199236
-0.798724935
-0.799216718
-0.79972546
-0.800217243
-0.800709027
-0.80120081
-0.801658677
-0.802116544
-0.802557454
-0.802981405
-0.803405356
-0.803795391
-0.804168468
-0.804541545
-0.804880706
-0.805202909
-0.805491196
-0.805779483
-0.806033853
-0.806271266
-0.806474763
-0.806678259
-0.806830882
-0.806983504
-0.80710221
-0.807203959
-0.807271791
-0.807339623
-0.807373539
-0.807390497
-0.807390497
-0.807356581
-0.807322665
-0.807271791
-0.807203959
-0.80710221
-0.806983504
-0.806864798
-0.806712175
-0.806542595
-0.806339098
-0.806135602
-0.805898189
-0.805660776
-0.805389448
-0.805101161
-0.804795916
-0.804473713
-0.804134552
-0.803778433
-0.803405356
-0.803015321
-0.80259137
-0.802150461
-0.801692593
-0.801217768
-0.800725985
-0.800217243
-0.799674586
-0.799131928
-0.798555355
-0.797978781
-0.797368291
-0.796740843
-0.796113396
-0.79546899
-0.794807626
-0.794146262
-0.79346794
-0.79277266
-0.792094338
-0.791399059
-0.790720737
-0.790042415
-0.789364093
-0.788685771
-0.788041365
-0.787396959
-0.786769512
-0.78617598
-0.785599406
-0.785039791
-0.784514091
-0.784022308
-0.783547483
-0.783106573
-0.78269958
-0.782309545
-0.781936468
-0.781597307
-0.781275104
-0.780969859
-0.780698531
-0.78044416
-0.780206747
-0.780003251
-0.779816712
-0.77966409
-0.779528425
-0.779426677
-0.779358845
-0.779324929
-0.779324929
-0.779358845
-0.779409719
-0.779511467
-0.779630174
-0.779799754
-0.779986293
-0.780206747
-0.780461118
-0.780732447
-0.78105465
-0.781410769
-0.781800804
-0.782207797
-0.782665664
-0.783140489
-0.783649231
-0.784191888
-0.784734546
-0.785328078
-0.785921609
-0.786549057
-0.787193463
-0.787871785
-0.788550107
-0.789262345
-0.789991541
-0.790754653
-0.791517765
-0.792297835
-0.793111821
-0.793925808
-0.79477371
-0.795621612
-0.796503431
-0.797402207
-0.798317942
-0.799250634
-0.800217243
-0.80120081
-0.802201335
-0.803235776
-0.804304133
-0.805389448
-0.806508679
-0.807644868
-0.808798015
-0.809985079
-0.8111891
-0.812393121
-0.813614101
-0.814852038
-0.816089976
-0.817344871
-0.818599767
-0.819854662
-0.821109558
-0.822347495
-0.823585433
-0.824789454
-0.825993475
-0.827180539
-0.828333686
-0.829469875
-0.830565365
-0.831626939
-0.832651205
-0.833633076
-0.834572551
-0.835462849
-0.836305664
-0.837097605
-0.837836976
-0.838523777
-0.839154616
-0.83973119
-0.840251802
-0.840714756
-0.841120054
-0.841467694
-0.841757676
-0.84198661
-0.842157886
-0.842268113
-0.842320683
-0.842315596
-0.842251155
-0.842129057
-0.841952694
-0.841718673
-0.841432082
-0.841091225
-0.840697798
-0.840255193
-0.83976341
-0.839224144
-0.838640787
-0.838011644
-0.837338409
-0.836622779
-0.835863059
-0.835059247
-0.834214737
-0.833329527
-0.832401921
-0.831437009
-0.830434788
-0.829402043
-0.828333686
-0.827231413
-0.826095224
-0.824942076
-0.823755013
-0.822550992
-0.821330012
-0.820109033
-0.818854137
-0.817599242
-0.816344346
-0.815089451
-0.813834555
-0.812562702
-0.811307806
-0.810069869
-0.808831931
-0.80762791
-0.806423889
-0.805253783
-0.804117594
-0.802998363
-0.801930006
-0.800912523
-0.799928956
-0.798996264
-0.798114445
-0.797300459
-0.796537347
-0.795859025
-0.795231577
-0.794671962
-0.794197136
-0.793807101
-0.793484898
-0.793247486
-0.793094863
-0.793027031
-0.793043989
-0.793145737
-0.793332276
-0.793620563
-0.79399364
-0.794451507
-0.795011123
-0.79563857
-0.796367766
-0.797181753
-0.798063571
-0.799013222
-0.800047663
-0.801132978
-0.802303083
-0.80354102
-0.804829832
-0.806169518
-0.807560078
-0.80901847
-0.81049382
-0.812003086
-0.813546268
-0.815106409
-0.816683507
-0.818243648
-0.819803788
-0.821363928
-0.822890153
-0.824399419
-0.825874769
-0.827299245
-0.828689805
-0.830029491
-0.83130304
-0.832513845
-0.83365173
-0.834711607
-0.835686695
-0.836568514
-0.837353671
-0.838035385
-0.838608567
-0.839069826
-0.839410682
-0.839629441
-0.839721015
-0.839683707
-0.839510735
-0.839200403
-0.838751014
-0.838159179
-0.837423199
-0.836541381
-0.835510332
-0.834330051
-0.83300054
-0.831518407
-0.829876868
-0.828096273
-0.826163056
-0.824077216
-0.821821796
-0.819413753
-0.816853088
-0.814122842
-0.811239974
-0.808187525
-0.804965496
-0.801573887
-0.798012697
-0.794264969
-0.790330702
-0.786226854
-0.78191951
-0.777408669
-0.772677374
-0.76775954
-0.762604294
-0.757211635
-0.751598521
-0.745747995
-0.739660056
-0.733300788
-0.72668715
-0.719802182
-0.712645886
-0.705218261
-0.697485392
-0.689481193
-0.68117175
-0.672557062
-0.663637129
-0.654394993
-0.644830655
-0.634927155
-0.624684494
-0.614085715
-0.603113858
-0.59180284
-0.580101788
-0.5680107
-0.555546535
-0.542675377
-0.529414184
-0.515745997
-0.501670818
-0.48715473
-0.472231648
-0.456867657
-0.441079715
-0.424850863
-0.408181103
-0.391087391
-0.373535812
-0.355560281
-0.337143842
-0.318286493
-0.299022151
-0.279333858
-0.259221614
-0.238702377
-0.217793104
-0.196493797
-0.174821412
-0.15277595
-0.130391328
-0.107667544
-0.084621558
-0.061287284
-0.037681682
-0.01382171
0.010258718
0.034525684
0.058979188
0.083568357
0.108276232
0.133034981
0.157844605
0.182654228
0.207429935
0.232103894
0.256676105
0.281078735
0.305260911
0.329205674
0.352845192
0.376145549
0.399055871
0.421525284
0.443502914
0.464954844
0.485813242
0.506027235
0.525528989
0.544301548
0.562243162
0.579302957
0.595447019
0.610607513
0.62469965
0.637672557
0.6494584
0.660006305
0.669282357
0.677252639
0.683900194
0.689208063
0.693210162
0.695804743
0.697330968
0.697330968
0.696143904
0.693684987
0.689971175
0.685019425
0.678863654
0.671554736
0.663126586
0.653613121
0.643099132
0.631635492
0.619273075
0.606062756
0.592072367
0.577352782
0.561954875
0.54592952
0.529310634
0.51214909
0.494478804
0.476350652
0.457798548
0.438839451
0.419507277
0.399835941
0.379842404
0.359577537
0.339041341
0.318267733
0.297273671
0.276076111
0.254708972
0.233172251
0.211499867
0.189691818
0.16778202
0.145804391
0.123758929
0.101662593
0.0795493
0.057436006
0.03533967
0.01327725
-0.008751253
-0.030678009
-0.052536932
-0.074260191
-0.095864743
-0.117299715
-0.138582065
-0.159677876
-0.18057019
-0.201259008
-0.221710413
-0.241941364
-0.261917944
-0.281623195
-0.301057117
-0.320202753
-0.339060101
-0.357612205
-0.375859064
-0.39378372
-0.411369216
-0.428632508
-0.445573597
-0.462158568
-0.478421335
-0.494327984
-0.509912429
-0.525140756
-0.540029921
-0.554562968
-0.568756854
-0.582577662
-0.59605931
-0.609184839
-0.621954249
-0.634367539
-0.646424711
-0.658125764
-0.669470697
-0.680459512
-0.691092208
-0.701385743
-0.711323159
-0.720904455
-0.730163549
-0.739066524
-0.747630338
-0.755854991
-0.763757441
-0.771337688
-0.778578775
-0.785514616
-0.792128255
-0.798436648
-0.804439797
-0.810154659
-0.815564276
-0.820685606
-0.825552566
-0.830131239
-0.83444367
-0.838501731
-0.842308813
-0.845871698
-0.849198867
-0.852293711
-0.855166404
-0.857820339
-0.860260602
-0.862495672
-0.864530638
-0.866370586
-0.8680223
-0.869492563
-0.870786462
-0.871909085
-0.87286891
-0.873667634
-0.87431204
-0.874810606
-0.875166725
-0.87538718
-0.875478754
-0.875446533
-0.875298998
-0.87503954
-0.874674942
-0.874210292
-0.873654068
-0.873007966
-0.872277074
-0.871469871
-0.870589748
-0.869640098
-0.868626007
-0.867554258
-0.866424852
-0.865246268
-0.864016809
-0.86274326
-0.861427315
-0.860072367
-0.858678416
-0.857250548
-0.85579046
-0.854301544
-0.85278719
-0.8512474
-0.849687259
-0.848105073
-0.846507625
-0.844889828
-0.843256768
-0.84160675
-0.839938078
-0.838252448
-0.836546468
-0.834821835
-0.833075156
-0.831306432
-0.829520749
-0.827706238
-0.825857811
-0.823992426
-0.822110082
-0.820193823
-0.818260606
-0.81631043
-0.814326339
-0.812308331
-0.810273365
-0.808221442
-0.806135602
-0.804015846
-0.801879132
-0.799708502
-0.797520914
-0.795316367
-0.793077905
-0.790822485
-0.788567065
-0.786277728
-0.783988392
-0.781682097
-0.779375803
-0.777086466
-0.774780172
-0.772490836
-0.770201499
-0.767929121
-0.765656743
-0.76341828
-0.761179818
-0.758958314
-0.756753768
-0.754583138
-0.752429466
-0.750275793
-0.748156038
-0.746036282
-0.743933484
-0.741847644
-0.739778762
-0.737726838
-0.735691873
-0.733673865
-0.731689774
-0.729705682
-0.727772465
-0.725856205
-0.723956904
-0.722108477
-0.720293966
-0.718513371
-0.71678365
-0.715104803
-0.713476831
-0.711899732
-0.710390466
-0.708949032
-0.70757543
-0.706286618
-0.705082597
-0.703963366
-0.702928925
-0.701979274
-0.701131372
-0.700385218
-0.699723854
-0.699164239
-0.698706371
-0.698333294
-0.698078923
-0.697909343
-0.697841511
-0.697858469
-0.697994133
-0.698214588
-0.698519833
-0.698909868
-0.699401651
-0.699961267
-0.700605673
-0.701334869
-0.702131897
-0.702996757
-0.70392945
-0.704946933
-0.70601529
-0.707134521
-0.708321584
-0.709559522
-0.710848333
-0.712188019
-0.713578579
-0.714986097
-0.716444489
-0.717919839
-0.719446063
-0.720972288
-0.722532428
-0.724092568
-0.725669667
-0.727263723
-0.728840822
-0.730434878
-0.731995018
-0.733572117
-0.735115299
-0.736641523
-0.73815079
-0.739609182
-0.741050616
-0.742458134
-0.743814777
-0.745120547
-0.746375443
-0.747579464
-0.748715653
-0.749800968
-0.750835409
-0.751802018
-0.752700794
-0.753548697
-0.754328767
-0.755057963
-0.755719327
-0.756329816
-0.756889432
-0.757398173
-0.757839083
-0.758246076
-0.758602195
-0.758924398
-0.759178768
-0.759399223
-0.759585762
-0.759721426
-0.759806216
-0.759840132
-0.759840132
-0.759806216
-0.759704468
-0.759585762
-0.759399223
-0.759178768
-0.75890744
-0.758602195
-0.758229118
-0.757822125
-0.757364257
-0.756838558
-0.756278942
-0.755668453
-0.755007089
-0.754294851
-0.753531739
-0.752717752
-0.75186985
-0.750971073
-0.750038381
-0.749037856
-0.748020373
-0.746952016
-0.745849743
-0.744713554
-0.743543449
-0.742356385
-0.741135406
-0.739897468
-0.738642573
-0.737370719
-0.736098866
-0.734810054
-0.733504285
-0.732198515
-0.730892745
-0.729586976
-0.728281206
-0.726975436
-0.725686625
-0.724397813
-0.72312596
-0.721854106
-0.720616169
-0.719395189
-0.718191168
-0.717004104
-0.715867915
-0.714748684
-0.713663369
-0.712595012
-0.711577529
-0.710593963
-0.709627354
-0.708711619
-0.707812843
-0.706947982
-0.706117038
-0.705303052
-0.704522982
-0.703759869
-0.703013715
-0.702301477
-0.701606197
-0.700910917
-0.700232596
-0.699571232
-0.698926826
-0.69828242
-0.697654972
-0.697027525
-0.696417035
-0.695823503
-0.695229972
-0.694653398
-0.694093782
-0.693551125
-0.693025425
-0.692516684
-0.692024901
-0.691550075
-0.691092208
-0.690668257
-0.690244306
-0.689837312
-0.689430319
-0.689040284
-0.688667207
-0.688277172
-0.687904095
-0.68751406
-0.687140983
-0.68673399
-0.686326997
-0.685903045
-0.685479094
-0.685021227
-0.684546402
-0.68403766
-0.683528919
-0.682986261
-0.682409688
-0.681833114
-0.681222624
-0.680595177
-0.679950771
-0.679289407
-0.678611085
-0.677915805
-0.677186609
-0.676474371
-0.675728217
-0.674982063
-0.674235909
-0.673489755
-0.672760559
-0.672031363
-0.671319125
-0.670640803
-0.669979439
-0.669351991
-0.668775418
-0.668249718
-0.667757935
-0.667333983
-0.666994823
-0.666706536
-0.666503039
-0.666384333
-0.666350417
-0.666401291
-0.666553913
-0.666808284
-0.667147445
-0.667605312
-0.66814797
-0.668792376
-0.669555488
-0.67040339
-0.671369999
-0.672421398
-0.673574545
-0.674812482
-0.676152168
-0.677593602
-0.679102868
-0.680696925
-0.682375772
-0.68412245
-0.68595392
-0.687853221
-0.689820354
-0.69185532
-0.693958118
-0.696128748
-0.69836721
-0.700656547
-0.702996757
-0.705387842
-0.707846759
-0.710339592
-0.712883299
-0.715460922
-0.718072461
-0.720717917
-0.72338033
-0.726042744
-0.728739073
-0.731418445
-0.734097816
-0.736777188
-0.739439601
-0.742102015
-0.744730512
-0.747325093
-0.749919674
-0.752463382
-0.754973173
-0.757449048
-0.759891006
-0.762299049
-0.764656218
-0.766945554
-0.769200974
-0.771405521
-0.773542235
-0.775611116
-0.777629124
-0.779562341
-0.781410769
-0.783191364
-0.784904126
-0.786515141
-0.788041365
-0.789482799
-0.790822485
-0.79207738
-0.793230528
-0.794281927
-0.795214619
-0.796062522
-0.796791718
-0.797419165
-0.797944865
-0.798351858
-0.798657103
-0.798860599
-0.79894539
-0.798928432
-0.798792767
-0.798572313
-0.798233152
-0.797792242
-0.797249585
-0.796605179
-0.795859025
-0.795028081
-0.794095388
-0.793077905
-0.791975632
-0.790805527
-0.789533673
-0.788210946
-0.786820386
-0.785361994
-0.783835769
-0.782275629
-0.780664614
-0.779019684
-0.777357795
-0.775661991
-0.773949228
-0.772219507
-0.770506744
-0.768777023
-0.767081219
-0.765402372
-0.763757441
-0.762146427
-0.760569328
-0.759060062
-0.75760167
-0.75621111
-0.75490534
-0.753667403
-0.752497298
-0.751428941
-0.750428416
-0.749529639
-0.748715653
-0.748003415
-0.747359009
-0.746799394
-0.746324568
-0.745934533
-0.74561233
-0.74535796
-0.745171421
-0.745052715
-0.745001841
-0.745018799
-0.745086631
-0.745205337
-0.745391876
-0.74561233
-0.745883659
-0.746188904
-0.746511107
-0.746884184
-0.747274219
-0.747681212
-0.748105163
-0.748546073
-0.74900394
-0.749461807
-0.749936633
-0.7503945
-0.750869325
-0.751327192
-0.751802018
-0.752242927
-0.752700794
-0.753141704
-0.753565655
-0.753989606
-0.754413557
-0.754803592
-0.755210585
-0.75560062
-0.755973697
-0.756346774
-0.756719852
-0.757075971
-0.75743209
-0.757788209
-0.758127369
-0.75846653
-0.758822649
-0.759178768
-0.759517929
-0.759891006
-0.760247125
-0.760620202
-0.760993279
-0.761383315
-0.76177335
-0.762163385
-0.76255342
-0.762960413
-0.763367406
-0.763757441
-0.764164434
-0.764571427
-0.764961463
-0.76533454
-0.765707617
-0.766063736
-0.766385939
-0.766708141
-0.76697947
-0.767233841
-0.767471254
-0.767657792
-0.767810415
-0.767946079
-0.768030869
-0.768081743
-0.768098701
-0.768081743
-0.768013911
-0.767912163
-0.767776498
-0.76758996
-0.767369505
-0.767115135
-0.766826848
-0.766487687
-0.766131568
-0.765741533
-0.765317582
-0.764876672
-0.764418805
-0.763927022
-0.76341828
-0.762909539
-0.762383839
-0.761841182
-0.761281566
-0.760721951
-0.760162335
-0.759585762
-0.75899223
-0.758398698
-0.757788209
-0.757160761
-0.756533313
-0.755871949
-0.755210585
-0.754532263
-0.753836983
-0.753124745
-0.752395549
-0.751632437
-0.750852367
-0.750038381
-0.749190478
-0.74830866
-0.747392925
-0.746426317
-0.745425792
-0.744374393
-0.74327212
-0.742118973
-0.740931909
-0.739677014
-0.738371244
-0.7370146
-0.735607082
-0.73414869
-0.732656382
-0.731096242
-0.729502185
-0.727874213
-0.726195366
-0.724482603
-0.722752883
-0.720972288
-0.719191693
-0.717377181
-0.71556267
-0.713731201
-0.711899732
-0.710085221
-0.708253752
-0.706439241
-0.704658646
-0.702878051
-0.701131372
-0.699401651
-0.697722804
-0.696077874
-0.694483817
-0.692940635
-0.691448327
-0.690006893
-0.688650249
-0.687361438
-0.686140458
-0.685004269
-0.68395287
-0.682986261
-0.682087485
-0.681290457
-0.680578219
-0.679950771
-0.679408113
-0.678950246
-0.678560211
-0.678254966
-0.678017553
-0.677847973
-0.677729267
-0.677678392
-0.67769535
-0.677763183
-0.677881889
-0.678051469
-0.678271924
-0.678509337
-0.678797624
-0.679102868
-0.679425071
-0.679764232
-0.680103393
-0.680459512
-0.680781715
-0.681120876
-0.681426121
-0.681714408
-0.681968778
-0.682189233
-0.682358814
-0.682494478
-0.68256231
-0.682579268
-0.682528394
-0.682409688
-0.682223149
-0.68195182
-0.681595701
-0.681154792
-0.680629093
-0.680018603
-0.679306365
-0.678509337
-0.677627518
-0.676643952
-0.675575595
-0.674422447
-0.673167552
-0.671827866
-0.67040339
-0.668911082
-0.667333983
-0.665672095
-0.663959332
-0.662178737
-0.66033031
-0.658431009
-0.656480833
-0.654496742
-0.652478734
-0.65042681
-0.648357928
-0.646289047
-0.644203207
-0.642134325
-0.640065443
-0.638030478
-0.636029428
-0.634079252
-0.632162993
-0.630331524
-0.628567887
-0.626872082
-0.625261068
-0.623734844
-0.62229341
-0.620953724
-0.619715786
-0.618579597
-0.617545156
-0.616612464
-0.615798477
-0.615086239
-0.61447575
-0.613967008
-0.613560015
-0.613237812
-0.6130004
-0.612830819
-0.612729071
-0.612678197
-0.612695155
-0.612762987
-0.612881693
-0.613017358
-0.613203896
-0.613407393
-0.613627847
-0.61386526
-0.614119631
-0.614374001
-0.614628372
-0.614899701
-0.61517103
-0.6154254
-0.615679771
-0.615917184
-0.616154596
-0.616358093
-0.616544631
-0.616714212
-0.616849876
-0.616968583
-0.617053373
-0.617104247
-0.617121205
-0.617121205
-0.617070331
-0.616985541
-0.616866834
-0.616697254
-0.616493757
-0.616256345
-0.6159511
-0.615628897
-0.61525582
-0.614848827
-0.614407917
-0.613933092
-0.613424351
-0.612898651
-0.612339036
-0.611745504
-0.611135014
-0.610524525
-0.609897077
-0.609252671
-0.608625223
-0.607997776
-0.607370328
-0.606759838
-0.606183264
-0.605623649
-0.605097949
-0.604606166
-0.604165257
-0.603758264
-0.603402145
-0.6030969
-0.602842529
-0.602672949
-0.6025712
-0.602537284
-0.602588158
-0.602723823
-0.602944277
-0.603232564
-0.603622599
-0.604080467
-0.604640082
-0.605284488
-0.605996726
-0.606810712
-0.607709489
-0.608693055
-0.609744454
-0.610897602
-0.612118581
-0.613424351
-0.614814911
-0.616273303
-0.617816485
-0.619444458
-0.621123304
-0.622853025
-0.624650578
-0.626499005
-0.628381349
-0.630297608
-0.632230825
-0.634147085
-0.636080302
-0.637979603
-0.639844989
-0.6416595
-0.643423137
-0.645118941
-0.646729956
-0.64825618
-0.649680656
-0.650986426
-0.652190447
-0.653258804
-0.654191497
-0.654971567
-0.655599015
-0.656056882
-0.656345169
-0.656446917
-0.656345169
-0.656022966
-0.655497266
-0.654734154
-0.653733629
-0.652495692
-0.651003384
-0.649239747
-0.647204781
-0.644898487
-0.642303905
-0.639437995
-0.636266841
-0.632790441
-0.629025754
-0.624955823
-0.620563689
-0.61586631
-0.610846727
-0.605521901
-0.599874871
-0.59388868
-0.587580286
-0.58094969
-0.573979932
-0.566687972
-0.559056851
-0.551086568
-0.542794083
-0.534162437
-0.52519163
-0.515881662
-0.506249491
-0.496261201
-0.485950708
-0.475301054
-0.46431224
-0.452984264
-0.441300169
-0.429276914
-0.416897539
-0.404179003
-0.391087391
-0.377656617
-0.363869725
-0.349726713
-0.335210625
-0.320355375
-0.305127048
-0.289542603
-0.27358508
-0.257271439
-0.240601678
-0.22355884
-0.206176842
-0.188438724
-0.170361445
-0.151945006
-0.133206363
-0.114145518
-0.09476247
-0.075091135
-0.055131513
-0.034900563
-0.014415241
0.006307493
0.027250681
0.048380408
0.069696674
0.09118252
0.112804031
0.134527289
0.156335338
0.17821122
0.200121017
0.222030814
0.243923653
0.265731702
0.287454961
0.309025597
0.330426653
0.351607255
0.372533485
0.393154471
0.413419337
0.433311127
0.452762008
0.471721105
0.49017146
0.5080622
0.525342451
0.541961337
0.557884944
0.573079354
0.587476736
0.601043174
0.613727794
0.625496679
0.636281997
0.646049832
0.654766269
0.662380432
0.66890928
0.674318897
0.678609283
0.681797396
0.683917152
0.684934635
0.684917677
0.683832362
0.681746522
0.678626241
0.674539352
0.669502812
0.663550537
0.65675036
0.649136197
0.640792837
0.63173724
0.622054195
0.611794576
0.6009923
0.589715199
0.577997188
0.5659061
0.553441935
0.540689483
0.527682661
0.514438426
0.501007652
0.487424256
0.473722154
0.459935262
0.446097495
0.43224277
0.418405003
0.404584195
0.390831218
0.377163032
0.363579636
0.350114946
0.336802879
0.323626476
0.310602696
0.297748496
0.285080835
0.272599712
0.260305127
0.248197081
0.236292532
0.224574521
0.213043049
0.201715073
0.19053972
0.179550905
0.168731671
0.158065059
0.14755107
0.137172745
0.126913126
0.116772214
0.106750008
0.096812592
0.086959966
0.077192131
0.06747517
0.057809083
0.04819387
0.038629531
0.02908215
0.019568686
0.010089137
0.000626547
-0.008819086
-0.018230802
-0.02762556
-0.036986402
-0.04629637
-0.055572422
-0.0647976
-0.073954946
-0.083044459
-0.092032224
-0.100918241
-0.109668594
-0.118283282
-0.126745347
-0.135037833
-0.143160737
-0.151097104
-0.158846931
-0.166393262
-0.173753055
-0.180892393
-0.187811276
-0.194526663
-0.201021595
-0.207296073
-0.213333138
-0.219149748
-0.224728945
-0.23007073
-0.235192061
-0.240075978
-0.244705525
-0.24909766
-0.253235423
-0.257135774
-0.260764796
-0.264156406
-0.267276686
-0.270159555
-0.272771094
-0.275128262
-0.277248018
-0.279113404
-0.280741376
-0.282114978
-0.283285083
-0.284234734
-0.28496393
-0.285506587
-0.285845748
-0.286015329
-0.286015329
-0.285862706
-0.28557442
-0.285167427
-0.284641727
-0.284031237
-0.283352915
-0.282640677
-0.281877565
-0.281114453
-0.280351341
-0.279605187
-0.278892949
-0.278231585
-0.277638053
-0.277129312
-0.276705361
-0.2763662
-0.276128787
-0.275993123
-0.275959207
-0.275993123
-0.276128787
-0.276349242
-0.276637529
-0.277010606
-0.277434557
-0.27792634
-0.278485956
-0.279079488
-0.279740851
-0.280436131
-0.281182285
-0.281962356
-0.282776342
-0.283607286
-0.284489105
-0.285404839
-0.286337532
-0.287304141
-0.288304665
-0.289339106
-0.290407463
-0.291492778
-0.292628967
-0.293782115
-0.294969178
-0.296207115
-0.297462011
-0.298750823
-0.300090508
-0.301447152
-0.30285467
-0.304296104
-0.305788412
-0.307297678
-0.308840861
-0.310434917
-0.312045932
-0.313690862
-0.315369709
-0.317065514
-0.318795235
-0.320558872
-0.322339467
-0.32413702
-0.325951531
-0.327799958
-0.329665343
-0.331530728
-0.333413071
-0.335295415
-0.337177758
-0.339043143
-0.340908528
-0.342739998
-0.344537551
-0.346318146
-0.348030908
-0.349709755
-0.35132077
-0.35288091
-0.354373218
-0.355780736
-0.357103464
-0.358341401
-0.35947759
-0.360512031
-0.361444724
-0.362275668
-0.362987906
-0.363598396
-0.364090179
-0.364463256
-0.364717627
-0.364870249
-0.364887208
-0.364785459
-0.364581963
-0.364242802
-0.363801892
-0.363225319
-0.362546997
-0.361733011
-0.360800318
-0.359731961
-0.358544898
-0.357239128
-0.355797694
-0.354220596
-0.352541749
-0.350744196
-0.348827937
-0.346792971
-0.344656257
-0.342400837
-0.340043668
-0.337567793
-0.33499017
-0.332310798
-0.329529679
-0.326663769
-0.323679152
-0.320609746
-0.317438591
-0.314199604
-0.310858868
-0.307433343
-0.303906069
-0.300294005
-0.296614109
-0.292832464
-0.288966029
-0.285014804
-0.280978789
-0.276874941
-0.272703262
-0.268446792
-0.26412249
-0.259730355
-0.255270389
-0.25074259
-0.246146959
-0.241500454
-0.236803075
-0.232037864
-0.227255695
-0.222439609
-0.217589608
-0.212756564
-0.207906562
-0.203073519
-0.198274391
-0.19350918
-0.188811801
-0.184182254
-0.179620539
-0.175160573
-0.170785397
-0.166545885
-0.162408121
-0.15842298
-0.154556545
-0.150859691
-0.147298501
-0.143923849
-0.14070182
-0.137649372
-0.134783462
-0.13210409
-0.129594299
-0.127271047
-0.125100417
-0.123133283
-0.121301814
-0.119656884
-0.118147617
-0.116807932
-0.115586952
-0.114501637
-0.113551987
-0.112721042
-0.112008804
-0.111415273
-0.110923489
-0.110550412
-0.110296041
-0.110160377
-0.110126461
-0.110228209
-0.110465622
-0.110821741
-0.111313524
-0.111940972
-0.112687126
-0.113585903
-0.114586427
-0.115739575
-0.11699447
-0.118368072
-0.119843422
-0.121403562
-0.123031535
-0.124744298
-0.126507935
-0.128322446
-0.130153915
-0.132036258
-0.133918601
-0.135817903
-0.137717204
-0.139599547
-0.141464933
-0.14331336
-0.145127871
-0.146908466
-0.148638187
-0.150317033
-0.151928048
-0.153488188
-0.154963538
-0.156388014
-0.1577277
-0.158999554
-0.160186617
-0.16128889
-0.162306373
-0.163239065
-0.164086968
-0.164833122
-0.165477528
-0.166037143
-0.166511969
-0.166885046
-0.167156374
-0.167342913
-0.167427703
-0.167427703
-0.167325955
-0.167139416
-0.16685113
-0.166461095
-0.165986269
-0.165426654
-0.16476529
-0.164019136
-0.163205149
-0.162323331
-0.161390638
-0.160390114
-0.159355673
-0.158287316
-0.157218959
-0.156116686
-0.155031371
-0.153946055
-0.152894657
-0.151860216
-0.150876649
-0.149943956
-0.149062138
-0.14826511
-0.147535914
-0.146908466
-0.146365808
-0.145924899
-0.145585738
-0.145331367
-0.145195703
-0.145161787
-0.145229619
-0.145416158
-0.145687486
-0.146060563
-0.146552347
-0.147145878
-0.147841158
-0.148638187
-0.149536963
-0.150537488
-0.151639761
-0.152843782
-0.154132594
-0.155506196
-0.156981546
-0.158541686
-0.160186617
-0.16189938
-0.163696933
-0.16554536
-0.167461619
-0.169411795
-0.171412844
-0.173413894
-0.17544886
-0.177466867
-0.179501833
-0.181519841
-0.183537848
-0.18552194
-0.187489073
-0.189422291
-0.191321592
-0.193186977
-0.195035404
-0.196832957
-0.198613552
-0.200360231
-0.202072994
-0.203751841
-0.205413729
-0.207024744
-0.208601842
-0.210128067
-0.211620375
-0.213078767
-0.214486285
-0.215859887
-0.217182614
-0.218454468
-0.219675447
-0.220845553
-0.221947826
-0.223016183
-0.224016707
-0.224983316
-0.225882093
-0.226713037
-0.227510065
-0.228239261
-0.228917583
-0.229545031
-0.230121605
-0.230664262
-0.231156045
-0.231613913
-0.232054822
-0.232444857
-0.232817934
-0.233157095
-0.233496256
-0.233818459
-0.234123704
-0.234411991
-0.234700277
-0.234971606
-0.235225977
-0.23546339
-0.235683844
-0.235887341
-0.236056921
-0.236192586
-0.236294334
-0.236379124
-0.236429998
-0.236446956
-0.236446956
-0.236429998
-0.236396082
-0.236345208
-0.236277376
-0.236226502
-0.236192586
-0.236158669
-0.236141711
-0.236158669
-0.236192586
-0.236260418
-0.236345208
-0.236463914
-0.236616537
-0.236786117
-0.237006572
-0.237243984
-0.237515313
-0.2378036
-0.238108845
-0.238448006
-0.238787167
-0.239177202
-0.239584195
-0.240025104
-0.24049993
-0.241025629
-0.241602203
-0.24222965
-0.242941888
-0.243721959
-0.244603777
-0.245587344
-0.246689617
-0.247893638
-0.249233324
-0.250691716
-0.252285773
-0.253998535
-0.255846963
-0.257831054
-0.259916894
-0.26212144
-0.264444693
-0.266835777
-0.26932861
-0.271889275
-0.274517773
-0.277163228
-0.2798426
-0.282538929
-0.285218301
-0.287863756
-0.290492253
-0.293069877
-0.295579668
-0.298021626
-0.300378795
-0.302651173
-0.304821804
-0.306907643
-0.308857819
-0.310706246
-0.312419009
-0.313996107
-0.315420583
-0.316709395
-0.317845584
-0.318812193
-0.319609221
-0.320219711
-0.32066062
-0.320914991
-0.320982823
-0.320847158
-0.320507997
-0.31996534
-0.319236144
-0.318286493
-0.317150304
-0.31579366
-0.314250478
-0.312520757
-0.31058754
-0.308450826
-0.306144531
-0.303651698
-0.300972327
-0.298106417
-0.295087884
-0.291882813
-0.288508162
-0.28496393
-0.281250118
-0.277400641
-0.273381584
-0.269209904
-0.26490256
-0.260442593
-0.255846963
-0.251115667
-0.246248708
-0.241246084
-0.236141711
-0.230901675
-0.225542932
-0.220065482
-0.214486285
-0.208805339
-0.203022645
-0.197172118
-0.191236802
-0.185250611
-0.179213546
-0.173125607
-0.167037668
-0.160932771
-0.154827874
-0.148756893
-0.142719828
-0.136716679
-0.130798321
-0.124947794
-0.119199016
-0.113551987
-0.108006705
-0.10258013
-0.097272261
-0.09206614
-0.086978726
-0.082010018
-0.077143059
-0.072377847
-0.067697426
-0.063118753
-0.058607913
-0.054164904
-0.04977277
-0.045448468
-0.041158082
-0.036901612
-0.032696016
-0.028524337
-0.024369615
-0.02024881
-0.01616192
-0.012091989
-0.008055973
-0.004053874
-5.18E-05
0.003933366
0.007901549
0.011852774
0.015803999
0.019755224
0.023723407
0.027691591
0.031659774
0.035644915
0.039647014
0.043666071
0.047685128
0.051738102
0.055791075
0.059861007
0.063930938
0.068000869
0.072070801
0.076140732
0.080176747
0.084178847
0.08814703
0.092047381
0.095879899
0.09961067
0.103239692
0.106766966
0.110175533
0.113465394
0.116619591
0.119655082
0.12253795
0.125302112
0.127947567
0.130457358
0.132848443
0.135103863
0.137240577
0.139258585
0.141140928
0.142921523
0.144566453
0.146109636
0.147534112
0.148873798
0.150128693
0.151298798
0.152401071
0.15345247
0.154452995
0.155419604
0.156352296
0.157268031
0.158132891
0.158980794
0.159811738
0.160608766
0.161371878
0.162118033
0.162813313
0.163474676
0.164102124
0.16466174
0.165170481
0.16561139
0.166001425
0.166323628
0.166611915
0.16683237
0.167035866
0.167188489
0.167341111
0.167459818
0.167561566
0.167646356
0.167714188
0.16778202
0.167815937
0.167832895
0.167815937
0.16778202
0.167714188
0.167595482
0.167425901
0.167188489
0.166900202
0.166527125
0.166086216
0.165594432
0.165051775
0.164441285
0.163796879
0.163118557
0.162423277
0.161677123
0.160914011
0.160133941
0.159319955
0.15848901
0.157641108
0.156793206
0.155911387
0.155029569
0.15414775
0.153265932
0.152384113
0.151519253
0.150654393
0.149823448
0.149009462
0.148229392
0.147500196
0.146821874
0.146177468
0.145600894
0.145092153
0.144617328
0.144210334
0.143871174
0.143582887
0.143362432
0.143192852
0.143057187
0.142972397
0.142921523
0.142887607
0.142887607
0.142921523
0.142955439
0.143023271
0.143091103
0.143192852
0.143328516
0.143481138
0.143650719
0.143871174
0.144125544
0.144413831
0.144736034
0.145126069
0.145566978
0.146058762
0.146618377
0.147262783
0.147941105
0.148704217
0.149501245
0.150366106
0.15128184
0.152231491
0.153232016
0.154266457
0.155351772
0.156454045
0.157607192
0.158777297
0.159964361
0.16118534
0.162423277
0.163661215
0.16491611
0.166171006
0.167408943
0.168629923
0.169816986
0.170953175
0.17203849
0.173039015
0.17395475
0.174768736
0.175464016
0.176006673
0.176396709
0.176617163
0.176651079
0.176447583
0.176006673
0.175294435
0.174293911
0.173022057
0.171428001
0.169545657
0.167341111
0.16483132
0.161999326
0.158862087
0.155402646
0.151654917
0.147618902
0.1432946
0.138715927
0.133865926
0.128761553
0.123419768
0.117857529
0.112091793
0.106139518
0.100000705
0.093709269
0.087265211
0.080702447
0.074037934
0.067271673
0.06043758
0.053535655
0.046599813
0.039647014
0.032677257
0.025707499
0.0187547
0.011818858
0.004933891
-0.001900202
-0.008683421
-0.01538185
-0.022012446
-0.028541295
-0.034985353
-0.041293746
-0.047483434
-0.053554415
-0.059472773
-0.065238509
-0.070868581
-0.076329072
-0.081636941
-0.08677523
-0.091760896
-0.096593939
-0.101257402
-0.105785201
-0.110126461
-0.114332057
-0.11838503
-0.122268423
-0.125999193
-0.129560383
-0.132968951
-0.136207938
-0.139294303
-0.142228045
-0.144992206
-0.147603746
-0.150045705
-0.152351999
-0.154522629
-0.156540637
-0.15842298
-0.160152701
-0.161763715
-0.163239065
-0.164595709
-0.165799731
-0.166902004
-0.167868612
-0.168699557
-0.169428753
-0.170022284
-0.170514068
-0.170904103
-0.171175432
-0.17136197
-0.17144676
-0.171463718
-0.171395886
-0.171260222
-0.171056725
-0.170785397
-0.170446236
-0.170056201
-0.169632249
-0.169140466
-0.168614767
-0.168055151
-0.167444661
-0.166817213
-0.166172808
-0.165511444
-0.164833122
-0.164137842
-0.163408646
-0.162662492
-0.16189938
-0.161085393
-0.160254449
-0.159355673
-0.158406022
-0.157371581
-0.15625235
-0.155031371
-0.153674727
-0.152199377
-0.150554446
-0.148756893
-0.146755843
-0.144551297
-0.142109338
-0.139429967
-0.136479267
-0.13324028
-0.12967909
-0.125812655
-0.121607059
-0.117062302
-0.112161427
-0.106904432
-0.101257402
-0.095237295
-0.088844111
-0.082043934
-0.074853722
-0.067256517
-0.059235361
-0.050807211
-0.04195511
-0.032679058
-0.022996013
-0.012872059
-0.002324153
0.008647703
0.020043511
0.031846312
0.044056106
0.056672894
0.069679716
0.083059615
0.096812592
0.110904729
0.12531907
0.140055613
0.155080443
0.170359644
0.185893215
0.201647241
0.217587806
0.233714909
0.249994634
0.266410024
0.282944121
0.299563007
0.316249726
0.33297036
0.349690995
0.36641163
0.383081391
0.399683319
0.416166541
0.432531057
0.448725992
0.464717431
0.480488415
0.496005028
0.511216397
0.526139479
0.540706442
0.554917285
0.568721136
0.582101035
0.595023067
0.607436358
0.619340907
0.630685841
0.641471159
0.651645988
0.661193369
0.670113301
0.678354913
0.685901244
0.692735337
0.698857192
0.704283767
0.70886244
0.71259321
0.715645659
0.717850205
0.719376429
0.720054751
0.720054751
0.719376429
0.717850205
0.715815239
0.713101952
0.709540762
0.705640411
0.700892158
0.695719953
0.689988133
0.683747572
0.677049143
0.669926763
0.662414348
0.654528856
0.646304203
0.637774305
0.628973078
0.619883565
0.610556639
0.6009923
0.591207507
0.581219217
0.571044388
0.560699979
0.55018599
0.539536336
0.528767976
0.51788091
0.506875137
0.495784574
0.484592263
0.473332119
0.462021101
0.45065921
0.439246444
0.427833678
0.416386996
0.40497423
0.393561464
0.382182614
0.37083768
0.359543621
0.348317393
0.337158998
0.326085393
0.315096578
0.304192554
0.293407236
0.282740624
0.272209677
0.261814393
0.251571733
0.241498653
0.231595153
0.221861234
0.212313853
0.202953011
0.193795665
0.184824858
0.176057548
0.167493734
0.159150374
0.151010511
0.143091103
0.13539215
0.127947567
0.120774313
0.113872388
0.107241791
0.100916439
0.094896333
0.089181471
0.083788811
0.078718355
0.073970102
0.06956101
0.06547412
0.06174335
0.05835174
0.055299292
0.052602962
0.050245794
0.048227786
0.046582855
0.045260128
0.044276561
0.043632155
0.043292994
0.043276036
0.043564323
0.044140897
0.044988799
0.04610803
0.047464674
0.04905873
0.050856283
0.052874291
0.055061879
0.057436006
0.059945797
0.062625168
0.065440204
0.068356988
0.071392479
0.07451276
0.07771783
0.080956818
0.084246679
0.08753654
0.090843359
0.094116262
0.097355249
0.10056032
0.103697559
0.106766966
0.10976854
0.11271924
0.11558515
0.118417144
0.121181306
0.123911552
0.126607881
0.129287253
0.131932708
0.134578164
0.137223619
0.139869074
0.142531488
0.145193901
0.147873273
0.150569602
0.15328289
0.155996177
0.158726423
0.161439711
0.164152998
0.166866286
0.169562615
0.172225029
0.174870484
0.177498982
0.180110521
0.182705102
0.185282725
0.187843391
0.190387098
0.192930805
0.195440596
0.197950387
0.200426262
0.202902137
0.205378012
0.207836928
0.210295845
0.212754762
0.215213679
0.217655638
0.220080639
0.222488681
0.224862808
0.227203019
0.229509313
0.231781691
0.234003196
0.236173826
0.23831054
0.24039638
0.242431345
0.244432395
0.246365612
0.248230997
0.250045509
0.251775229
0.253437118
0.255031174
0.256540441
0.257981875
0.25932156
0.260576456
0.261729603
0.262764044
0.263696737
0.264510723
0.265189045
0.265731702
0.266121737
0.266376108
0.26644394
0.266342192
0.266053905
0.265596038
0.264951632
0.26410373
0.263069289
0.26184831
0.260440792
0.258812819
0.256998308
0.254997258
0.25280967
0.250418586
0.247840962
0.245076801
0.242143058
0.239022778
0.235732916
0.232290433
0.228695327
0.224947598
0.221047247
0.217011232
0.212822594
0.20851525
0.204055284
0.199459653
0.194745316
0.189878356
0.184875732
0.179720486
0.174412617
0.168952126
0.163322054
0.15753936
0.151570127
0.145448272
0.139139878
0.132678862
0.126065224
0.119282005
0.112346163
0.1052577
0.098050529
0.090707695
0.083246154
0.075665907
0.067966953
0.060149293
0.052212927
0.044174813
0.036017992
0.027759423
0.019382147
0.010903124
0.00233931
-0.006275378
-0.014974857
-0.023691293
-0.032441646
-0.041191998
-0.049925393
-0.058624871
-0.067256517
-0.075837289
-0.084350229
-0.092744462
-0.101036948
-0.10917681
-0.117164051
-0.12498171
-0.132612832
-0.140040457
-0.147247627
-0.154217384
-0.160949729
-0.167410745
-0.173634349
-0.179569665
-0.185216695
-0.190592396
-0.195662852
-0.20046198
-0.204938904
-0.2091445
-0.213027893
-0.216622999
-0.219895902
-0.222897476
-0.225593806
-0.228001849
-0.230121605
-0.231970032
-0.23354713
-0.2348529
-0.235904299
-0.236701327
-0.237243984
-0.237566187
-0.237650978
-0.237515313
-0.237176152
-0.236650453
-0.235938215
-0.235056396
-0.234038914
-0.232868808
-0.231579997
-0.230172479
-0.228663212
-0.227069156
-0.225390309
-0.223626672
-0.221795203
-0.21991286
-0.217996601
-0.216063383
-0.21409625
-0.212146074
-0.210212857
-0.208313556
-0.206482086
-0.20471845
-0.203056561
-0.201496421
-0.200071945
-0.198783133
-0.197646944
-0.196663377
-0.195866349
-0.195238901
-0.194797992
-0.194560579
-0.194526663
-0.194696243
-0.195052362
-0.195611978
-0.196358132
-0.197290825
-0.198427014
-0.199749742
-0.201275966
-0.202988729
-0.20488803
-0.207007786
-0.209297122
-0.211789955
-0.214486285
-0.217352195
-0.220387685
-0.223575798
-0.22695045
-0.230443807
-0.234089788
-0.237871432
-0.241771783
-0.245756924
-0.249843814
-0.253998535
-0.258204131
-0.262460601
-0.266734029
-0.271041373
-0.275348717
-0.279639103
-0.283929489
-0.288169001
-0.292391555
-0.296563234
-0.30068404
-0.304737013
-0.308722154
-0.312656421
-0.31648894
-0.320253627
-0.323950481
-0.327545587
-0.331055903
-0.334481428
-0.337822164
-0.341044193
-0.344181432
-0.347216922
-0.350133706
-0.352948742
-0.355645072
-0.358222695
-0.360664654
-0.363004864
-0.36520941
-0.367278292
-0.36921151
-0.371026021
-0.372687909
-0.374231092
-0.37563861
-0.376910463
-0.37806361
-0.379081093
-0.37997987
-0.380742982
-0.381404346
-0.381963961
-0.382404871
-0.38276099
-0.38301536
-0.383184941
-0.383269731
-0.383286689
-0.383218857
-0.383083192
-0.382879696
-0.382591409
-0.382252248
-0.381828297
-0.381336514
-0.380776898
-0.380132492
-0.379420254
-0.378640184
-0.377775324
-0.376825673
-0.375825148
-0.374739833
-0.373586686
-0.372382664
-0.371127769
-0.369821999
-0.368465356
-0.367074796
-0.365667278
-0.364242802
-0.362801368
-0.361359934
-0.3599185
-0.358494024
-0.357069548
-0.355645072
-0.354254512
-0.352863952
-0.351507308
-0.350150664
-0.348810979
-0.347471293
-0.346131607
-0.344758005
-0.343384403
-0.341959927
-0.340484577
-0.338958353
-0.337364297
-0.33568545
-0.333921813
-0.332073386
-0.33012321
-0.328088245
-0.325917615
-0.323645236
-0.32127111
-0.318761319
-0.316149779
-0.313436492
-0.31058754
-0.307653797
-0.304601349
-0.30146411
-0.298225123
-0.294901346
-0.291492778
-0.288016379
-0.284489105
-0.280893999
-0.277264976
-0.27358508
-0.269888226
-0.266191371
-0.262477559
-0.258780705
-0.255100808
-0.251454828
-0.247859722
-0.24431549
-0.240822132
-0.237430523
-0.234106746
-0.230884717
-0.227781394
-0.224796778
-0.221947826
-0.219251496
-0.216707789
-0.214333662
-0.212146074
-0.210161983
-0.20836443
-0.206787331
-0.205430688
-0.204311456
-0.203429638
-0.202785232
-0.202412155
-0.202310407
-0.202479987
-0.202954813
-0.203717925
-0.204786282
-0.206159884
-0.207855688
-0.209890654
-0.212247823
-0.214944152
-0.217962685
-0.22130342
-0.2249494
-0.228900625
-0.233157095
-0.23771881
-0.242534895
-0.24762231
-0.252964094
-0.258509376
-0.264258154
-0.270176513
-0.276247494
-0.282454139
-0.288762533
-0.295155716
-0.301616733
-0.308111665
-0.314606597
-0.321101529
-0.327579503
-0.334006603
-0.340365871
-0.346640348
-0.352813078
-0.358884059
-0.364802417
-0.370585111
-0.376215183
-0.381675674
-0.386949627
-0.392037041
-0.396904001
-0.401567464
-0.406010473
-0.410233026
-0.414218168
-0.417948938
-0.421459254
-0.424698241
-0.427699815
-0.430447019
-0.432922894
-0.435161356
-0.43712849
-0.438841252
-0.440299644
-0.441503666
-0.442470275
-0.443165554
-0.443623422
-0.443843876
-0.443826918
-0.443572548
-0.443080764
-0.442351568
-0.441401918
-0.440231812
-0.438824294
-0.437179364
-0.43529702
-0.433194223
-0.430837054
-0.428225515
-0.425376563
-0.422290198
-0.418949463
-0.415354357
-0.411521838
-0.407451907
-0.403127604
-0.398582848
-0.393817636
-0.388815012
-0.383608892
-0.378182317
-0.372552245
-0.366735635
-0.36069857
-0.354491924
-0.348115699
-0.341552934
-0.334837547
-0.327986496
-0.320982823
-0.313860443
-0.306619357
-0.29929348
-0.291882813
-0.284404314
-0.276891899
-0.269345568
-0.261782279
-0.25421899
-0.246689617
-0.23919416
-0.231749577
-0.224389785
-0.21713174
-0.209975444
-0.202954813
-0.196086803
-0.189405333
-0.182893442
-0.176602007
-0.170514068
-0.164646583
-0.15903347
-0.153657769
-0.148553396
-0.143720353
-0.139158638
-0.134868252
-0.130849195
-0.127135383
-0.123675941
-0.120487828
-0.117571044
-0.114925588
-0.112517546
-0.110380832
-0.10848153
-0.106853558
-0.105462998
-0.104343767
-0.103461948
-0.102851459
-0.102512298
-0.102444465
-0.102647962
-0.103156703
-0.103953732
-0.105072963
-0.106514397
-0.108278034
-0.11039779
-0.112856707
-0.115671742
-0.118842897
-0.122370171
-0.126270522
-0.130510034
-0.135105665
-0.140040457
-0.145314409
-0.150910565
-0.156795007
-0.162950779
-0.169360921
-0.175991517
-0.182842568
-0.189897116
-0.197104286
-0.204447121
-0.21192562
-0.219505867
-0.227170904
-0.234886816
-0.242636644
-0.250420387
-0.258187173
-0.265953959
-0.273686828
-0.281385782
-0.289016903
-0.296563234
-0.304024775
-0.311384568
-0.318642612
-0.325748034
-0.33273475
-0.339551885
-0.346199439
-0.352677413
-0.358985807
-0.365073746
-0.370975147
-0.376656092
-0.382133542
-0.387390536
-0.392410119
-0.397209246
-0.401770961
-0.406112221
-0.41019911
-0.414065545
-0.417694567
-0.421086177
-0.424240374
-0.427174116
-0.429870445
-0.43234632
-0.434618699
-0.436653664
-0.438485133
-0.440113106
-0.441537582
-0.442775519
-0.44380996
-0.444640905
-0.445302268
-0.445777094
-0.446099297
-0.446234961
-0.446218003
-0.446031464
-0.445709262
-0.445251394
-0.444640905
-0.443911709
-0.443063806
-0.442080239
-0.441011882
-0.439824819
-0.438552966
-0.437196322
-0.435771846
-0.434279538
-0.432719397
-0.431108383
-0.429463452
-0.427801564
-0.426122717
-0.42444387
-0.422765023
-0.421103135
-0.41949212
-0.417915022
-0.416388798
-0.414913447
-0.41350593
-0.412149286
-0.41089439
-0.409707327
-0.408605054
-0.407604529
-0.406688794
-0.405891766
-0.405196486
-0.404602955
-0.404111171
-0.403721136
-0.403432849
-0.403246311
-0.403161521
-0.403144563
-0.403229353
-0.403381975
-0.403585472
-0.403873759
-0.404195961
-0.404569039
-0.404976032
-0.405433899
-0.405925682
-0.406451382
-0.407010997
-0.407587571
-0.408181103
-0.40880855
-0.40941904
-0.410063446
-0.410707852
-0.411352257
-0.411979705
-0.412607153
-0.413234601
-0.41384509
-0.414438622
-0.414998238
-0.415540895
-0.416049637
-0.416524462
-0.416965371
-0.417372364
-0.417745441
-0.418067644
-0.418355931
-0.418610302
-0.418813798
-0.418966421
-0.419102085
-0.419186875
-0.41923775
-0.419271666
-0.419254708
-0.41923775
-0.419186875
-0.419102085
-0.419017295
-0.418915547
-0.41879684
-0.418678134
-0.41854247
-0.418406805
-0.418271141
-0.418118518
-0.417965896
-0.417796316
-0.417643693
-0.417491071
-0.417355406
-0.4172367
-0.417134952
-0.417067119
-0.417016245
-0.417016245
-0.417050161
-0.417134952
-0.417253658
-0.417423238
-0.417660651
-0.417965896
-0.418338973
-0.418779882
-0.419288624
-0.419865197
-0.420526561
-0.421255757
-0.422052785
-0.422900688
-0.42383338
-0.424799989
-0.425800514
-0.426834955
-0.427903312
-0.429005585
-0.430107858
-0.431227089
-0.43234632
-0.433465551
-0.434584782
-0.435704014
-0.436806287
-0.43790856
-0.438976917
-0.440045274
-0.441096673
-0.442131114
-0.443148596
-0.444149121
-0.445132688
-0.446133213
-0.447099821
-0.448083388
-0.449049997
-0.450016606
-0.451000172
-0.451966781
-0.45293339
-0.453899999
-0.454849649
-0.455816258
-0.456765909
-0.457715559
-0.458648252
-0.459580944
-0.460496679
-0.461429372
-0.462345106
-0.463260841
-0.464159617
-0.465075352
-0.466008044
-0.466923779
-0.46787343
-0.46882308
-0.469789689
-0.470773256
-0.47177378
-0.472808221
-0.47385962
-0.474944935
-0.476047208
-0.477200356
-0.478404377
-0.479659273
-0.480965042
-0.482321686
-0.48376312
-0.485272386
-0.486849485
-0.488494415
-0.490224136
-0.492021689
-0.493904032
-0.495854208
-0.497855257
-0.499924139
-0.502060853
-0.504231483
-0.506436029
-0.50869145
-0.510963828
-0.513253165
-0.515559459
-0.517865753
-0.520172048
-0.522461384
-0.524733763
-0.526972225
-0.529176771
-0.531347401
-0.533467157
-0.535519081
-0.53752013
-0.539453348
-0.541318733
-0.543116286
-0.544829049
-0.546457021
-0.548017162
-0.549475554
-0.550849156
-0.552121009
-0.553308073
-0.55437643
-0.555359996
-0.556224857
-0.556987969
-0.557649333
-0.55819199
-0.558615941
-0.558938144
-0.559141641
-0.559243389
-0.559226431
-0.559090767
-0.558836396
-0.558497235
-0.558039368
-0.557479752
-0.556835346
-0.55610615
-0.555275206
-0.55437643
-0.553409821
-0.55237538
-0.551290065
-0.550170834
-0.549000729
-0.547796707
-0.546592686
-0.545354748
-0.544133769
-0.542895831
-0.54169181
-0.540521705
-0.539368558
-0.538249326
-0.537164011
-0.536129571
-0.535146004
-0.534196353
-0.533314535
-0.532466632
-0.531686562
-0.530940408
-0.530262086
-0.529634638
-0.529058065
-0.528566281
-0.52814233
-0.527786211
-0.527514882
-0.527328344
-0.527226596
-0.527226596
-0.527328344
-0.527548799
-0.527871001
-0.528311911
-0.528888484
-0.529566806
-0.53039775
-0.531347401
-0.532432716
-0.533670654
-0.535044255
-0.536553522
-0.538198452
-0.540012963
-0.541980097
-0.544099853
-0.546389189
-0.548848106
-0.551476603
-0.554274681
-0.557259298
-0.560447411
-0.563805104
-0.567349336
-0.571063148
-0.574980457
-0.579067347
-0.583357733
-0.587800741
-0.592430288
-0.597212457
-0.602164207
-0.607268579
-0.612525574
-0.617901275
-0.623412641
-0.629025754
-0.634740616
-0.640540269
-0.646424711
-0.652376986
-0.658363176
-0.664400241
-0.670471222
-0.676542203
-0.6826471
-0.688735039
-0.694822978
-0.700893959
-0.706947982
-0.712951131
-0.718920364
-0.724838722
-0.730689249
-0.736471943
-0.742169847
-0.747782961
-0.753311284
-0.758737859
-0.764045728
-0.769234891
-0.774322305
-0.779257097
-0.784073182
-0.788770561
-0.79329836
-0.797690494
-0.801946964
-0.806033853
-0.80996812
-0.813749765
-0.817361829
-0.820804313
-0.824077216
-0.827163581
-0.830063407
-0.832780086
-0.835310227
-0.837648741
-0.839792238
-0.841737327
-0.84348231
-0.845023796
-0.846358394
-0.847486105
-0.848400143
-0.849098815
-0.849582119
-0.849844969
-0.849885668
-0.849700826
-0.849290441
-0.848649427
-0.847777783
-0.846673814
-0.845335824
-0.843758726
-0.841942519
-0.839885508
-0.837584301
-0.835035506
-0.832239124
-0.829198546
-0.825891727
-0.822330537
-0.818514976
-0.814445045
-0.810103785
-0.805491196
-0.800607278
-0.795435074
-0.790008499
-0.784293637
-0.778290488
-0.771999052
-0.76541933
-0.758534363
-0.751378067
-0.743899568
-0.73614974
-0.728094667
-0.71973435
-0.711068788
-0.702114939
-0.692855845
-0.683308464
-0.673472797
-0.663331884
-0.652919643
-0.642202157
-0.631213342
-0.619936241
-0.608387811
-0.596568052
-0.584476964
-0.572114547
-0.559480802
-0.546575728
-0.533416283
-0.520002467
-0.506317323
-0.49236085
-0.478166964
-0.46370175
-0.448982165
-0.434008209
-0.418779882
-0.403297185
-0.387560117
-0.371602594
-0.355390701
-0.338958353
-0.322288592
-0.305432293
-0.288355539
-0.271092247
-0.253642416
-0.236039963
-0.218267929
-0.200377189
-0.182350785
-0.16423959
-0.146026647
-0.127745872
-0.109414223
-0.091048658
-0.072666134
-0.054283611
-0.035901087
-0.017569438
0.000694379
0.018907322
0.037018517
0.055027963
0.072935661
0.090707695
0.108344064
0.125810853
0.143108061
0.160252647
0.177176779
0.193914372
0.210448468
0.226728193
0.242770506
0.258524532
0.273990271
0.289133808
0.303921225
0.318335566
0.332359871
0.345943267
0.359085754
0.371719499
0.383827545
0.395392933
0.406347832
0.416658325
0.426307454
0.435261303
0.443452039
0.450862706
0.457476345
0.463225123
0.46810904
0.472094182
0.475112714
0.477181596
0.478232995
0.478249953
0.477198554
0.475095756
0.471924601
0.467685089
0.462411137
0.456119701
0.448844699
0.440603088
0.431445742
0.421355704
0.410400805
0.398581046
0.385913385
0.372465653
0.358254809
0.343314769
0.327730324
0.311501472
0.294729963
0.277432755
0.259660721
0.241481695
0.222929591
0.204038326
0.184875732
0.165475726
0.145872223
0.12609914
0.106224308
0.086264686
0.06625419
0.046226736
0.02621624
0.006256619
-0.013635171
-0.033425212
-0.053079589
-0.072581344
-0.091913518
-0.111042195
-0.12993346
-0.148604271
-0.167003752
-0.185131905
-0.202971771
-0.22052335
-0.237752726
-0.254659899
-0.271227912
-0.287456763
-0.303329495
-0.318846109
-0.334006603
-0.348794021
-0.363208361
-0.377232666
-0.390883894
-0.404128129
-0.416999287
-0.42948041
-0.441571498
-0.453272551
-0.464583568
-0.475487593
-0.48601854
-0.496142495
-0.505893372
-0.515254214
-0.524225021
-0.532839709
-0.541064362
-0.548932896
-0.556445311
-0.563618565
-0.5704357
-0.576930633
-0.583086404
-0.58893693
-0.594465254
-0.599688332
-0.604640082
-0.609286587
-0.613678721
-0.617799527
-0.621649004
-0.625278026
-0.628652677
-0.631823832
-0.634774532
-0.637521736
-0.640065443
-0.642422612
-0.644593242
-0.646594291
-0.648425761
-0.650087649
-0.651596915
-0.652970517
-0.654208455
-0.655310728
-0.656311253
-0.657193071
-0.657990099
-0.658702337
-0.659329785
-0.659906359
-0.6604151
-0.660872967
-0.661296919
-0.661669996
-0.662026115
-0.662365276
-0.662687479
-0.662992723
-0.663297968
-0.663603213
-0.663925416
-0.664264577
-0.664620696
-0.665027689
-0.665468598
-0.665960382
-0.666486081
-0.667096571
-0.667740977
-0.668453215
-0.669216327
-0.670030313
-0.670912132
-0.671844824
-0.672828391
-0.673845874
-0.674914231
-0.676016504
-0.677135735
-0.67830584
-0.679492904
-0.680713883
-0.68195182
-0.683223674
-0.684512486
-0.685818255
-0.687157941
-0.688514585
-0.689888187
-0.691278746
-0.692686264
-0.694093782
-0.695518258
-0.696942734
-0.69836721
-0.699791686
-0.701216162
-0.702640638
-0.704048156
-0.705455674
-0.706846234
-0.708219836
-0.70957648
-0.710916165
-0.712238893
-0.713544663
-0.714816516
-0.71608837
-0.717326307
-0.718564245
-0.719768266
-0.720972288
-0.722142393
-0.723312498
-0.724482603
-0.725635751
-0.726788898
-0.727942045
-0.729078234
-0.730231381
-0.731367571
-0.73250376
-0.733656907
-0.734793096
-0.735912327
-0.737048516
-0.738184706
-0.739303937
-0.740440126
-0.741559357
-0.74266163
-0.743780861
-0.744866176
-0.745951491
-0.747036806
-0.748105163
-0.749156562
-0.750191003
-0.751225444
-0.752242927
-0.753243452
-0.754227019
-0.755193627
-0.756160236
-0.757109887
-0.758042579
-0.758975272
-0.759891006
-0.760806741
-0.761722476
-0.76263821
-0.763536987
-0.764452721
-0.765368456
-0.766301148
-0.767250799
-0.768217408
-0.769184016
-0.770184541
-0.771202024
-0.772236465
-0.773304822
-0.774390137
-0.77549241
-0.776611641
-0.77774783
-0.778900978
-0.780071083
-0.781241188
-0.782411293
-0.783598357
-0.784768462
-0.785955525
-0.787125631
-0.788312694
-0.789482799
-0.790652904
-0.79182301
-0.792976157
-0.794129304
-0.795282451
-0.796418641
-0.797571788
-0.798707977
-0.799861124
-0.800997313
-0.802150461
-0.80328665
-0.804439797
-0.805575986
-0.806712175
-0.807848365
-0.808967596
-0.810069869
-0.811172142
-0.812257457
-0.813308856
-0.814343297
-0.815343821
-0.816327388
-0.817277039
-0.818192773
-0.81909155
-0.819939452
-0.820753439
-0.821533509
-0.822279663
-0.822974943
-0.823636307
-0.824246796
-0.82482337
-0.825332111
-0.825823895
-0.826247846
-0.826620923
-0.826960084
-0.827231413
-0.827451867
-0.827621448
-0.827740154
-0.827807986
-0.827824944
-0.827791028
-0.827706238
-0.827570574
-0.827400993
-0.827180539
-0.82690921
-0.826603965
-0.826264804
-0.825874769
-0.825467776
-0.825026867
-0.824568999
-0.824077216
-0.823585433
-0.823076691
-0.822550992
-0.822025292
-0.821499593
-0.820973893
-0.820465152
-0.819939452
-0.819430711
-0.81892197
-0.818430186
-0.817955361
-0.817480535
-0.817022668
-0.816564801
-0.81614085
-0.815716899
-0.815309905
-0.81491987
-0.814546793
-0.814190674
-0.813868471
-0.813580185
-0.813308856
-0.813071443
-0.812884905
-0.812715324
-0.812596618
-0.812528786
-0.81249487
-0.812528786
-0.812596618
-0.812732282
-0.812901863
-0.813139275
-0.813410604
-0.813749765
-0.814122842
-0.814546793
-0.815021619
-0.81553036
-0.816089976
-0.816683507
-0.817310955
-0.817989277
-0.818701515
-0.819447669
-0.820227739
-0.821041725
-0.821889628
-0.822754488
-0.823670223
-0.824602915
-0.825569524
-0.826570049
-0.82760449
-0.828655889
-0.829724246
-0.83082991
-0.831954229
-0.833100593
-0.834269002
-0.835457762
-0.836665175
-0.83788785
-0.839127483
-0.840378987
-0.841644057
-0.842917607
-0.844199635
-0.845486751
-0.84678065
-0.84807794
-0.849376927
-0.850675913
-0.851976596
-0.853277278
-0.85457796
-0.855875251
-0.857170845
-0.858461353
-0.859748469
-0.861028801
-0.862300655
-0.863560638
-0.86480875
-0.866043296
-0.867260884
-0.868461513
-0.869643489
-0.87080342
-0.871941305
-0.873055449
-0.874144155
-0.875205729
-0.87624017
-0.877249174
-0.878227653
-0.879178999
-0.880099821
-0.880993511
-0.881856675
-0.882692707
-0.88349991
-0.88427998
-0.885032917
-0.885760418
-0.886462481
-0.887139107
-0.887791992
-0.888421135
-0.889026538
-0.889609894
-0.890171206
-0.890710472
-0.891227692
-0.891724563
-0.892199388
-0.892653864
-0.89308799
-0.893498375
-0.89388841
-0.894256399
-0.894602344
-0.894924546
-0.8952264
-0.895504512
-0.895762274
-0.895997991
-0.896211662
-0.896404984
-0.89657626
-0.896727187
-0.89685946
-0.896973079
-0.897069739
-0.897149442
-0.897213883
-0.897263061
-0.897302065
-0.897327502
-0.897346156
-0.897354635
-0.897358026
-0.897354635
-0.897347851
-0.897339372
-0.897327502
-0.897313935
-0.897298673
-0.897283411
-0.897264757
-0.897242712
-0.897213883
-0.897179967
-0.89713418
-0.897079914
-0.897012082
-0.896930684
-0.896830631
-0.896710229
-0.89656439
-0.896393113
-0.896189617
-0.895952204
-0.89567918
-0.895367152
-0.895012728
-0.89461591
-0.894171609
-0.89367813
-0.893135472
-0.892538549
-0.89188736
-0.89118021
-0.89041201
-0.889586153
-0.888695856
-0.887744509
-0.886727026
-0.885645103
-0.884497043
-0.883282847
-0.881999123
-0.880649262
-0.879229874
-0.877744349
-0.876190991
-0.874571498
-0.872884172
-0.871134102
-0.869317895
-0.867440639
-0.865500638
-0.86350298
-0.861447665
-0.859336388
-0.857170845
-0.854954429
-0.852687138
-0.850370668
-0.848006717
-0.845598674
-0.843148236
-0.840657099
-0.838128654
-0.835566293
-0.832973408
-0.830351693
-0.827706238
-0.825043825
-0.822364453
-0.819685082
-0.816988752
-0.814292423
-0.811613051
-0.80893368
-0.806271266
-0.803625811
-0.801014271
-0.79841969
-0.795859025
-0.793349234
-0.790856401
-0.788414442
-0.786006399
-0.783649231
-0.781342936
-0.779104474
-0.776916886
-0.774780172
-0.77271129
-0.770727199
-0.768793981
-0.766928596
-0.765148001
-0.763452196
-0.761824224
-0.760298
-0.758856565
-0.75751688
-0.756261984
-0.755108837
-0.754057438
-0.753124745
-0.752293801
-0.751564605
-0.750937157
-0.750445374
-0.750038381
-0.749750094
-0.749563556
-0.749495723
-0.749529639
-0.749665304
-0.749919674
-0.750275793
-0.750733661
-0.751293276
-0.751971598
-0.75273471
-0.753599571
-0.754549221
-0.75560062
-0.756719852
-0.757923873
-0.759212684
-0.760569328
-0.761993804
-0.76350307
-0.765046253
-0.766674225
-0.768336114
-0.770048877
-0.771829472
-0.773627025
-0.77549241
-0.777374753
-0.779307971
-0.781275104
-0.783276154
-0.785311119
-0.787380001
-0.789482799
-0.791602555
-0.793739269
-0.795909899
-0.798097487
-0.800302033
-0.802540496
-0.804778958
-0.807034378
-0.809306757
-0.811579135
-0.813868471
-0.81614085
-0.818413228
-0.820685606
-0.822941027
-0.825196447
-0.827434909
-0.829639455
-0.831847393
-0.834026502
-0.836185262
-0.838318584
-0.840428165
-0.842508918
-0.844564233
-0.846589024
-0.848581594
-0.850545336
-0.852475162
-0.854374463
-0.856238153
-0.858069622
-0.859867175
-0.861630812
-0.863360533
-0.865054642
-0.866714835
-0.868341111
-0.86993008
-0.871485133
-0.87300627
-0.874493491
-0.8759451
-0.877366184
-0.878755048
-0.880113388
-0.881441203
-0.882738494
-0.884006956
-0.885244893
-0.886452306
-0.887629194
-0.888770471
-0.889879527
-0.89094958
-0.891982325
-0.892974371
-0.89392063
-0.894822798
-0.895675788
-0.896477904
-0.897227449
-0.897924425
-0.898563743
-0.8991471
-0.899671104
-0.900134059
-0.900535964
-0.900875125
-0.901149846
-0.901360125
-0.901505965
-0.901583972
-0.901597538
-0.901543272
-0.90142287
-0.901236332
-0.900983657
-0.900666541
-0.900283289
-0.899837293
-0.899326856
-0.898751978
-0.898116051
-0.897417379
-0.896655963
-0.895833498
-0.894951679
-0.894010508
-0.893009983
-0.891953497
-0.890841049
-0.889676031
-0.888456747
-0.887188285
-0.885874037
-0.884512305
-0.883108179
-0.881665049
-0.880184612
-0.878670258
-0.87712538
-0.875553369
-0.873955921
-0.872338123
-0.870705063
-0.869056741
-0.86739994
-0.865736355
-0.864071075
-0.862409186
-0.860754081
-0.859107455
-0.857477786
-0.855866772
-0.854279498
-0.852717662
-0.851186351
-0.849688955
-0.84822378
-0.846795912
-0.845407048
-0.844058883
-0.842749722
-0.84148126
-0.840251802
-0.839063042
-0.837913287
-0.836799143
-0.835720611
-0.834679387
-0.833672079
-0.832698687
-0.831759211
-0.830851956
-0.829978616
-0.829130714
-0.828316728
-0.827536658
-0.826790504
-0.826078266
-0.825382986
-0.824721622
-0.824077216
-0.823483684
-0.822890153
-0.822347495
-0.821821796
-0.821313054
-0.820838229
-0.82039732
-0.819973368
-0.819583333
-0.819227214
-0.818905011
-0.818616725
-0.818362354
-0.818158857
-0.817989277
-0.817853613
-0.817768822
-0.817717948
-0.817717948
-0.817751864
-0.817836654
-0.817955361
-0.818124941
-0.818328438
-0.818582809
-0.818888053
-0.819227214
-0.819634207
-0.820075117
-0.8205669
-0.8210926
-0.821686131
-0.822296621
-0.822974943
-0.823670223
-0.824399419
-0.825162531
-0.825959559
-0.826773545
-0.827621448
-0.82846935
-0.829351169
-0.830232987
-0.831116501
-0.832015278
-0.832917446
-0.833819614
-0.834721782
-0.835618863
-0.836510856
-0.837396066
-0.838271102
-0.839135962
-0.839990648
-0.840831767
-0.841661015
-0.842475002
-0.843277117
-0.844063971
-0.844837258
-0.845596978
-0.846341436
-0.847070632
-0.84778287
-0.848481542
-0.84916156
-0.849826315
-0.850474113
-0.851103256
-0.851715442
-0.852312365
-0.852890634
-0.853453641
-0.854001386
-0.854535565
-0.855056177
-0.855563223
-0.856056702
-0.85653831
-0.857009744
-0.857469307
-0.857920391
-0.858362996
-0.858800514
-0.859232944
-0.859663678
-0.860092717
-0.860525147
-0.860959273
-0.861398487
-0.861842788
-0.862292176
-0.862748347
-0.863209606
-0.863677648
-0.864154169
-0.864637474
-0.865129257
-0.865631215
-0.866141653
-0.866662265
-0.867191356
-0.86772723
-0.868266496
-0.868807458
-0.869351811
-0.869892773
-0.870430343
-0.870964521
-0.871491917
-0.872010833
-0.87252127
-0.873018141
-0.873499749
-0.8739644
-0.874410397
-0.874832652
-0.875232862
-0.875605939
-0.875951883
-0.876268999
-0.876553894
-0.876808264
-0.877032111
-0.877220345
-0.877376359
-0.877496761
-0.877583247
-0.877635817
-0.877652775
-0.877637513
-0.877586639
-0.877503544
-0.877386534
-0.877238999
-0.877062635
-0.876855747
-0.876621726
-0.876360572
-0.876072285
-0.875761953
-0.875426184
-0.875070065
-0.874695292
-0.874301865
-0.87389148
-0.873467529
-0.873031707
-0.872584015
-0.872126148
-0.871659801
-0.871188368
-0.870713542
-0.870235325
-0.869755412
-0.869277196
-0.868797283
-0.868320762
-0.867845936
-0.867374503
-0.866906461
-0.866443506
-0.865987334
-0.865537946
-0.865095341
-0.864659519
-0.864232176
-0.863813313
-0.863401232
-0.862997631
-0.862600812
-0.862212473
-0.861830917
-0.86145784
-0.861094938
-0.860738819
-0.860392875
-0.860057105
-0.859731511
-0.859417787
-0.859114238
-0.858824255
-0.858546143
-0.858283293
-0.858035706
-0.857805076
-0.857591405
-0.857398083
-0.857225111
-0.857072489
-0.856943608
-0.856835076
-0.856750286
-0.856685845
-0.856640059
-0.856612926
-0.856601055
-0.856602751
-0.856612926
-0.856628188
-0.85664345
-0.856653625
-0.856655321
-0.856640059
-0.856604447
-0.856541702
-0.856445041
-0.856309377
-0.856127926
-0.855892209
-0.855595443
-0.855230845
-0.854791631
-0.854269324
-0.853657138
-0.852946596
-0.852130914
-0.851201613
-0.850150214
-0.84897163
-0.847653989
-0.84619051
-0.844572712
-0.842788725
-0.840830071
-0.838686574
-0.836348059
-0.833804352
-0.831045278
-0.828062357
-0.824840328
-0.821380886
-0.817684032
-0.813715849
-0.809459379
-0.804948538
-0.800132453
-0.795011123
-0.789584547
-0.783852727
-0.777781746
-0.771371605
-0.764605344
-0.757499922
-0.750038381
-0.742186805
-0.73397911
-0.725364422
-0.716359699
-0.70696494
-0.697146231
-0.686920528
-0.676270874
-0.665180311
-0.653648839
-0.641676458
-0.629246209
-0.616375051
-0.603029068
-0.589208259
-0.574912625
-0.560142166
-0.544896881
-0.529159813
-0.512930962
-0.496210327
-0.478997909
-0.461293707
-0.443097722
-0.424409954
-0.405230402
-0.385576025
-0.365446823
-0.344842795
-0.323780901
-0.302261138
-0.280300467
-0.257915844
-0.235107271
-0.211891704
-0.188286102
-0.164324381
-0.139989582
-0.11534954
-0.090387294
-0.065136761
-0.039648816
-0.013923458
0.012005397
0.038103832
0.064337931
0.090656821
0.117043542
0.143447222
0.169850902
0.196169792
0.222386933
0.248451452
0.274329432
0.299953042
0.325305323
0.350318443
0.374958486
0.39915762
0.422898886
0.446131411
0.468787362
0.490815866
0.512183006
0.532837908
0.552695781
0.57172271
0.589833905
0.606995449
0.62313951
0.638181298
0.652052981
0.6647376
0.676167324
0.686308237
0.695143379
0.702757543
0.70886244
0.713949854
0.717511044
0.719885171
0.721072234
0.720902654
0.71954601
0.717002303
0.713441113
0.708523279
0.702587962
0.695516457
0.68741051
0.678270122
0.668146168
0.657055605
0.645049307
0.632161191
0.618425173
0.603875168
0.588579009
0.572553655
0.555866936
0.538535811
0.520611155
0.502126884
0.483099954
0.463581242
0.443604662
0.423187173
0.402345733
0.381114257
0.359526663
0.337616865
0.315384865
0.292881536
0.270123837
0.247128724
0.223930115
0.200544968
0.177007198
0.153333764
0.129558581
0.105715567
0.081821678
0.057910831
0.033999984
0.010123053
-0.013686045
-0.037427312
-0.061049872
-0.084570683
-0.107938873
-0.131137482
-0.154149552
-0.176958126
-0.199563203
-0.22191391
-0.244027203
-0.265852211
-0.287405889
-0.308637364
-0.329563595
-0.350167622
-0.370415531
-0.390307321
-0.409826033
-0.428971669
-0.447744227
-0.466109793
-0.484085323
-0.50165386
-0.518815404
-0.535552997
-0.551883597
-0.567790245
-0.583272942
-0.598348647
-0.6130004
-0.627228201
-0.641032052
-0.654428909
-0.667418774
-0.680001645
-0.692177523
-0.703946408
-0.715325258
-0.726297114
-0.736895894
-0.747121597
-0.756957264
-0.766419855
-0.775543284
-0.784293637
-0.792704828
-0.800759901
-0.80849277
-0.815903437
-0.822974943
-0.829741204
-0.836188653
-0.842339337
-0.848196647
-0.853763974
-0.859049797
-0.8640609
-0.868804066
-0.873286078
-0.877513719
-0.881492077
-0.885227935
-0.88872638
-0.8919925
-0.895031382
-0.897848114
-0.900447783
-0.902835476
-0.905014585
-0.906991893
-0.908770792
-0.910358065
-0.9117588
-0.912978084
-0.914021004
-0.914892647
-0.915598102
-0.916144151
-0.916537578
-0.916780078
-0.916881826
-0.916846214
-0.916681721
-0.916393435
-0.915986441
-0.915469221
-0.914848556
-0.914129535
-0.913317245
-0.91242186
-0.911450164
-0.910405548
-0.909298187
-0.908134865
-0.906920669
-0.905662382
-0.904368483
-0.903045755
-0.901700982
-0.900339251
-0.898965649
-0.897590352
-0.896213358
-0.894844844
-0.8934882
-0.892146818
-0.890824091
-0.889523408
-0.888246467
-0.886993268
-0.885765505
-0.884566571
-0.88339477
-0.882255189
-0.881146133
-0.880070993
-0.879028073
-0.878015677
-0.877035502
-0.87608246
-0.875156551
-0.874254382
-0.873375956
-0.872517878
-0.871678455
-0.87085599
-0.870048787
-0.869253454
-0.868469992
-0.867698401
-0.866933593
-0.866175569
-0.865422631
-0.864673086
-0.863926932
-0.863180778
-0.862434623
-0.861688469
-0.860938924
-0.860185986
-0.859426266
-0.858663154
-0.857891563
-0.857113188
-0.856326335
-0.855532698
-0.854730582
-0.853921684
-0.853106002
-0.852283536
-0.851455984
-0.850625039
-0.849790703
-0.848954672
-0.848116944
-0.847282608
-0.846451664
-0.845625807
-0.844806733
-0.84399953
-0.843202502
-0.842420736
-0.841655928
-0.840906382
-0.84017549
-0.839463252
-0.838767972
-0.838089651
-0.837428287
-0.836785577
-0.836158129
-0.835545943
-0.834947324
-0.834360576
-0.833784002
-0.833215908
-0.832652901
-0.832094981
-0.831538757
-0.830980837
-0.830419526
-0.82985991
-0.829283336
-0.828706763
-0.828130189
-0.827536658
-0.826943126
-0.826332636
-0.825722147
-0.825111657
-0.824484209
-0.823873719
-0.823246272
-0.822618824
-0.822008334
-0.821397844
-0.820787355
-0.820193823
-0.819617249
-0.819040676
-0.818498018
-0.817972319
-0.817463577
-0.816988752
-0.816530885
-0.816106934
-0.815716899
-0.815343821
-0.815021619
-0.814733332
-0.814478961
-0.814275465
-0.814105884
-0.813987178
-0.813902387
-0.813885429
-0.813902387
-0.81397022
-0.814088926
-0.814241548
-0.814462003
-0.814699416
-0.815004661
-0.815326863
-0.81569994
-0.816123892
-0.816564801
-0.817056584
-0.817582284
-0.818141899
-0.818735431
-0.819362879
-0.820041201
-0.820736481
-0.821465677
-0.822228789
-0.823025817
-0.823839803
-0.824687706
-0.825552566
-0.826451343
-0.827350119
-0.828282812
-0.829232462
-0.830182113
-0.831153809
-0.832133984
-0.833120943
-0.834114684
-0.835113513
-0.836114038
-0.837117954
-0.838123567
-0.839130875
-0.840138183
-0.841145491
-0.84215619
-0.843168586
-0.844184373
-0.845203551
-0.846226122
-0.847257171
-0.848293308
-0.849337923
-0.850392714
-0.851457679
-0.852537907
-0.853631701
-0.854744149
-0.855875251
-0.857028398
-0.858205286
-0.85940422
-0.860626896
-0.861873312
-0.863145166
-0.864444152
-0.865768576
-0.867120132
-0.868498821
-0.869908035
-0.871342686
-0.872807861
-0.874300169
-0.875821306
-0.877369576
-0.878944978
-0.880545818
-0.882167007
-0.883808546
-0.885465348
-0.887135715
-0.888817954
-0.890506975
-0.89220278
-0.89390028
-0.895599477
-0.897295282
-0.898985999
-0.900668237
-0.902341996
-0.904002189
-0.905650511
-0.907281876
-0.908894586
-0.910488642
-0.912060653
-0.913608923
-0.915131756
-0.916627456
-0.918096023
-0.919532369
-0.920939887
-0.922311793
-0.923651479
-0.924953857
-0.926220623
-0.927448386
-0.928637145
-0.9297869
-0.930894261
-0.931960922
-0.932986884
-0.933968755
-0.934906535
-0.935803616
-0.93665491
-0.937465504
-0.938232008
-0.938956117
-0.93963783
-0.940278844
-0.940875768
-0.941433687
-0.941952604
-0.942430821
-0.94287173
-0.943277027
-0.943643321
-0.943977394
-0.944275856
-0.944542097
-0.944777814
-0.944983007
-0.94515937
-0.945308601
-0.945432395
-0.945529056
-0.945601975
-0.94565285
-0.945679982
-0.945686766
-0.945673199
-0.945640979
-0.945590105
-0.945522273
-0.945437482
-0.945339126
-0.945225507
-0.945096626
-0.944955874
-0.944801556
-0.944635367
-0.944455611
-0.944263986
-0.944058793
-0.943840034
-0.943606013
-0.943358426
-0.943095576
-0.942815768
-0.942520698
-0.942206974
-0.941874597
-0.941521869
-0.941147096
-0.940751974
-0.94033311
-0.939888809
-0.939420767
-0.938925592
-0.938403284
-0.937853844
-0.937275574
-0.93666678
-0.936027462
-0.935355923
-0.934650468
-0.933911098
-0.933134419
-0.932320433
-0.931469139
-0.930577145
-0.929644453
-0.928671061
-0.927653578
-0.926595396
-0.925491427
-0.924343367
-0.923149521
-0.921908192
-0.92061938
-0.919283086
-0.917895918
-0.916457875
-0.914968959
-0.913425776
-0.911830024
-0.91017831
-0.908472331
-0.906710389
-0.904890791
-0.903015231
-0.901082014
-0.899091139
-0.897042607
-0.894938113
-0.892775962
-0.890559545
-0.888285471
-0.885957131
-0.883574525
-0.881137654
-0.878649908
-0.876111289
-0.873521795
-0.870884818
-0.868202055
-0.865475201
-0.862707648
-0.859899395
-0.857053835
-0.854174359
-0.851266053
-0.84832892
-0.845368044
-0.84238682
-0.839392029
-0.836385367
-0.833373618
-0.830368652
-0.827350119
-0.824365503
-0.821380886
-0.818430186
-0.815496444
-0.812613576
-0.809781582
-0.806983504
-0.804270217
-0.801607803
-0.799013222
-0.796520389
-0.794112346
-0.791806052
-0.789601505
-0.787515666
-0.785548532
-0.783717063
-0.782021258
-0.780461118
-0.7790536
-0.777781746
-0.776679473
-0.775729823
-0.774949753
-0.774322305
-0.773881396
-0.773576151
-0.773457444
-0.773508318
-0.773694857
-0.774067934
-0.774576675
-0.775238039
-0.776035068
-0.77696776
-0.778036117
-0.77922318
-0.780545908
-0.781970384
-0.783513566
-0.785141539
-0.786888218
-0.788702729
-0.790618988
-0.79260308
-0.794655004
-0.79677476
-0.79894539
-0.801166894
-0.803422314
-0.805728609
-0.808068819
-0.810425988
-0.812817072
-0.815208157
-0.817633158
-0.820041201
-0.822466201
-0.824874244
-0.827282287
-0.829673372
-0.832061065
-0.834428408
-0.836775402
-0.839098654
-0.841398166
-0.843670544
-0.845914094
-0.848125423
-0.850304532
-0.852448029
-0.85455761
-0.856628188
-0.858659762
-0.860650637
-0.862600812
-0.864505201
-0.866365499
-0.868176618
-0.869940255
-0.871653018
-0.873313211
-0.874920834
-0.876475887
-0.877976674
-0.879423195
-0.880815451
-0.882155137
-0.883438861
-0.884670015
-0.8858486
-0.886974614
-0.88805145
-0.889079108
-0.890059283
-0.890993671
-0.891885664
-0.892733567
-0.893542466
-0.894314057
-0.895050036
-0.895753795
-0.896425334
-0.897064652
-0.897676838
-0.898260194
-0.898816418
-0.899350597
-0.899859338
-0.90034773
-0.900817468
-0.901268552
-0.901700982
-0.902116454
-0.902514969
-0.902896525
-0.903261123
-0.903605371
-0.903927574
-0.904227731
-0.904502452
-0.904751735
-0.904973885
-0.905167207
-0.905330004
-0.905462277
-0.905564025
-0.905630162
-0.905664078
-0.905662382
-0.90562677
-0.905553851
-0.905445319
-0.905297784
-0.905111246
-0.904887399
-0.904622854
-0.904317609
-0.903971665
-0.903585021
-0.903159374
-0.902693028
-0.902184287
-0.901638237
-0.901051489
-0.900425737
-0.899760982
-0.899060614
-0.898322939
-0.897549652
-0.896742449
-0.89590133
-0.895031382
-0.89413091
-0.893201609
-0.892248567
-0.891273479
-0.890276346
-0.889262254
-0.888232901
-0.887191677
-0.886141974
-0.885087183
-0.884030697
-0.882975906
-0.881926203
-0.880884979
-0.87985393
-0.878836447
-0.877834226
-0.87685066
-0.875887442
-0.874947967
-0.874033928
-0.873145326
-0.872285553
-0.871454609
-0.870650797
-0.869874119
-0.869122877
-0.868395377
-0.867693314
-0.867009905
-0.866346845
-0.865700743
-0.865068208
-0.864449239
-0.86383875
-0.863240131
-0.862648295
-0.862063242
-0.861484973
-0.860913487
-0.860347088
-0.859787472
-0.859232944
-0.858686895
-0.858147629
-0.857616842
-0.85709623
-0.856587489
-0.856090618
-0.855609009
-0.855142663
-0.854693275
-0.85426254
-0.853853851
-0.8534706
-0.853114481
-0.85278719
-0.852493816
-0.852237749
-0.852022382
-0.85184941
-0.851723921
-0.851645914
-0.851615389
-0.851634043
-0.851701875
-0.85181719
-0.851981683
-0.852191963
-0.852449725
-0.852753274
-0.85310261
-0.853496037
-0.853933554
-0.854410075
-0.8549256
-0.855478432
-0.856063485
-0.856682454
-0.857330251
-0.858006877
-0.85870894
-0.859438136
-0.860191074
-0.860967752
-0.861766476
-0.86258555
-0.863424973
-0.864283051
-0.865159782
-0.866051775
-0.866962422
-0.867888331
-0.868831199
-0.869789329
-0.870764416
-0.871758158
-0.872770553
-0.873801603
-0.874853002
-0.875928142
-0.877027023
-0.87814795
-0.87929601
-0.880467811
-0.881666745
-0.882887724
-0.884134141
-0.885402603
-0.886694806
-0.888007359
-0.889341957
-0.890695209
-0.89206542
-0.893450892
-0.894846539
-0.896250666
-0.897658184
-0.899069093
-0.900476611
-0.901879042
-0.903272993
-0.904658466
-0.906028676
-0.907383624
-0.908719918
-0.910037558
-0.911331457
-0.912601615
-0.913846336
-0.915062228
-0.916250987
-0.917409222
-0.918535236
-0.91962903
-0.9206923
-0.921719957
-0.922712003
-0.923670133
-0.92459265
-0.925479556
-0.92633085
-0.927144837
-0.927924907
-0.928667669
-0.92937482
-0.930048054
-0.930685677
-0.931289383
-0.93186087
-0.93239844
-0.932905485
-0.933380311
-0.933824612
-0.934240084
-0.934628423
-0.934987934
-0.935320311
-0.935625556
-0.93590706
-0.93616143
-0.93639206
-0.936597252
-0.936778703
-0.936934717
-0.937065294
-0.93717213
-0.937255224
-0.937316273
-0.937351885
-0.937363756
-0.937353581
-0.937317969
-0.937258616
-0.937175522
-0.937068686
-0.936936413
-0.936782095
-0.936605731
-0.936405626
-0.936183476
-0.93593928
-0.935674734
-0.935391535
-0.935089682
-0.934769175
-0.934433405
-0.934078982
-0.933710993
-0.933326045
-0.932927531
-0.932513754
-0.932088107
-0.93165059
-0.931202897
-0.93074503
-0.930278684
-0.929803858
-0.929323946
-0.928838946
-0.928348858
-0.927853683
-0.927353421
-0.926851462
-0.926347808
-0.925840763
-0.925333717
-0.924824976
-0.924319626
-0.923815972
-0.92331571
-0.922820535
-0.922330447
-0.921848838
-0.921375709
-0.92091445
-0.920463366
-0.920027544
-0.919605289
-0.919201687
-0.918813348
-0.918445358
-0.918096023
-0.917767036
-0.917460096
-0.917171809
-0.916908959
-0.916666459
-0.9164477
-0.916254379
-0.916083102
-0.915935567
-0.915810078
-0.915706634
-0.915623539
-0.915560794
-0.915516703
-0.915489571
-0.915476004
-0.915474308
-0.915479396
-0.915489571
-0.91549805
-0.915496354
-0.915481092
-0.915442088
-0.91537256
-0.915265724
-0.915114798
-0.914909605
-0.914643364
-0.914307595
-0.913892123
-0.913388469
-0.912784762
-0.912075916
-0.911248363
-0.910293625
-0.909201527
-0.907961893
-0.906562854
-0.904994235
-0.90324586
-0.901307556
-0.899169146
-0.89681876
-0.89424792
-0.891446451
-0.888404177
-0.885110924
-0.881558214
-0.877737565
-0.873638805
-0.869253454
-0.864573033
-0.859589063
-0.854294761
-0.848679951
-0.842739547
-0.836463374
-0.829842952
-0.822873195
-0.815547318
-0.807848365
-0.799793292
-0.791348184
-0.782513042
-0.773304822
-0.763672651
-0.753650445
-0.743221246
-0.732385053
-0.72112491
-0.709457773
-0.697349727
-0.684834688
-0.67187874
-0.658498841
-0.64469499
-0.63045023
-0.615781519
-0.600688857
-0.585172244
-0.569231679
-0.552867163
-0.536078696
-0.518883236
-0.501280783
-0.483271337
-0.464871855
-0.446065381
-0.426885829
-0.407316242
-0.387373578
-0.367074796
-0.346419894
-0.325425831
-0.304109566
-0.282471097
-0.260527384
-0.238312341
-0.215842929
-0.193119145
-0.170174907
-0.14704413
-0.123726815
-0.100273835
-0.076685191
-0.053011757
-0.029270491
-0.005495308
0.018262916
0.042004183
0.065660659
0.089198429
0.112583576
0.135765227
0.158726423
0.181382374
0.203699165
0.225659836
0.247179598
0.268207577
0.288726815
0.30865252
0.327950778
0.346587673
0.364495371
0.381622999
0.397953598
0.413402379
0.427969342
0.441586654
0.4542204
0.465819704
0.47636761
0.485813242
0.494105727
0.501228107
0.507146466
0.511826887
0.515252412
0.51744
0.518355735
0.518033532
0.516473392
0.51370923
0.509758005
0.504636675
0.498362197
0.490985446
0.482523381
0.472976
0.462411137
0.450811832
0.438262877
0.424764271
0.410383847
0.395138562
0.379113208
0.362324741
0.344840994
0.326712841
0.307974199
0.288692899
0.268919815
0.248671907
0.228033963
0.207022942
0.185706677
0.164102124
0.142294075
0.120299488
0.098152278
0.075920277
0.053603487
0.031269739
0.00893599
-0.013363842
-0.035612801
-0.05776001
-0.079805472
-0.101698311
-0.12342157
-0.144975248
-0.166291514
-0.187404283
-0.208262681
-0.228849751
