-0.734275505
-0.734724628
-0.735171049
-0.735608354
-0.736039831
-0.73646622
-0.736880791
-0.737286883
-0.7376828
-0.738066423
-0.738436215
-0.738793129
-0.739137748
-0.73946578
-0.739779928
-0.740077542
-0.740361854
-0.740630692
-0.740881035
-0.741117123
-0.741337313
-0.741542823
-0.741733654
-0.741907209
-0.742067145
-0.742213832
-0.742345469
-0.742462214
-0.7425664
-0.742654953
-0.742734603
-0.742798672
-0.742848858
-0.742887702
-0.742917008
-0.742933489
-0.742937675
-0.742930733
-0.742911602
-0.742883516
-0.742842074
-0.742788657
-0.742727237
-0.742652886
-0.742567672
-0.742471594
-0.742363804
-0.742244886
-0.742111766
-0.741968682
-0.741811131
-0.741642928
-0.74146153
-0.741270063
-0.741062963
-0.740843092
-0.740610342
-0.740366411
-0.740105152
-0.739832975
-0.739547868
-0.739249247
-0.738937961
-0.738616076
-0.738279565
-0.73793166
-0.73757093
-0.737200132
-0.736815502
-0.736421599
-0.736015188
-0.735594894
-0.73516453
-0.734726324
-0.734275081
-0.733814882
-0.733346946
-0.732866238
-0.732380549
-0.731884844
-0.731382992
-0.730875469
-0.730358885
-0.729836418
-0.729307698
-0.728770287
-0.728226357
-0.727673313
-0.727112849
-0.726543536
-0.725967386
-0.725381486
-0.724785887
-0.724183294
-0.723571267
-0.722945886
-0.722314305
-0.721672708
-0.721024328
-0.720362699
-0.719697466
-0.719021688
-0.718339498
-0.717652008
-0.716957417
-0.71626166
-0.715559756
-0.714854407
-0.714145985
-0.713439788
-0.712728292
-0.712018809
-0.711309698
-0.710602336
-0.709896987
-0.709196301
-0.708502293
-0.707811836
-0.707128639
-0.706455298
-0.705791284
-0.705136068
-0.704493305
-0.703861406
-0.70324567
-0.7026435
-0.702058076
-0.701487703
-0.700938315
-0.70040721
-0.699896508
-0.699404725
-0.698935464
-0.698488725
-0.698060906
-0.697659848
-0.697279829
-0.696918145
-0.69658121
-0.696266956
-0.69597178
-0.695701352
-0.695452281
-0.695224354
-0.695017254
-0.694832517
-0.694671257
-0.694525577
-0.694405121
-0.694303002
-0.694221922
-0.694157481
-0.694113708
-0.694084667
-0.694078414
-0.694083131
-0.694105706
-0.694138721
-0.694189012
-0.69425393
-0.694331301
-0.694420013
-0.694519535
-0.694633578
-0.694755252
-0.694890864
-0.695034583
-0.695188477
-0.695352069
-0.695524777
-0.695708718
-0.695899602
-0.696100131
-0.696304423
-0.696519896
-0.696739079
-0.696961971
-0.697194455
-0.697429006
-0.697671506
-0.69791867
-0.698168536
-0.698424603
-0.698683319
-0.698951998
-0.699220518
-0.699493384
-0.699774569
-0.700056656
-0.700345367
-0.700637628
-0.700936619
-0.701238632
-0.701545466
-0.70185617
-0.70217249
-0.702493368
-0.702817691
-0.703147896
-0.703477412
-0.703814347
-0.704150487
-0.704487317
-0.704822291
-0.705157371
-0.705491498
-0.705819265
-0.706141786
-0.706462293
-0.706775858
-0.707079407
-0.707378081
-0.707666262
-0.70794644
-0.708213901
-0.708472511
-0.708718508
-0.708953695
-0.709175846
-0.709388245
-0.709585489
-0.709768159
-0.709938958
-0.710098523
-0.710243673
-0.710374992
-0.710491578
-0.710595022
-0.71068384
-0.710759833
-0.710820299
-0.71086863
-0.710901698
-0.710925386
-0.710934077
-0.710932011
-0.710917755
-0.710893484
-0.710858243
-0.710813834
-0.71076084
-0.710698307
-0.710630687
-0.710554323
-0.710475203
-0.710388611
-0.710297356
-0.71020663
-0.710109174
-0.710011348
-0.709912514
-0.7098096
-0.70970907
-0.709606633
-0.709507111
-0.709410609
-0.709315644
-0.709225395
-0.709140605
-0.709063287
-0.70899254
-0.708925026
-0.708868428
-0.708818826
-0.708780511
-0.708752478
-0.708734566
-0.708727994
-0.708733188
-0.708753113
-0.708785281
-0.708830061
-0.708886287
-0.708957193
-0.709040552
-0.709137319
-0.709244261
-0.709364027
-0.70949683
-0.709638006
-0.709789886
-0.709950776
-0.710117282
-0.710294123
-0.71047727
-0.710663438
-0.710855222
-0.711047166
-0.711244993
-0.7114416
-0.711636935
-0.711830893
-0.712020187
-0.712208422
-0.712389078
-0.712564276
-0.712731153
-0.712890188
-0.713038147
-0.713179588
-0.713307621
-0.713423678
-0.713527864
-0.713618907
-0.713698345
-0.713762468
-0.713815409
-0.713852875
-0.713875875
-0.713883347
-0.713879902
-0.713857592
-0.713824894
-0.713773066
-0.713708626
-0.713626909
-0.71353311
-0.713423307
-0.713299142
-0.713157277
-0.713001528
-0.712831895
-0.712646681
-0.71245018
-0.712240218
-0.712016955
-0.71178553
-0.711540857
-0.711289401
-0.711028459
-0.710761423
-0.710489459
-0.710215215
-0.709935831
-0.70965862
-0.709379554
-0.709101336
-0.708827729
-0.708553432
-0.708287721
-0.708023228
-0.707764883
-0.70751136
-0.707267218
-0.707025512
-0.706792021
-0.706565154
-0.706344117
-0.706132565
-0.705924193
-0.705728063
-0.705536914
-0.705352707
-0.70518
-0.705014394
-0.704859281
-0.704709838
-0.704572107
-0.704443332
-0.70432754
-0.704218267
-0.704118373
-0.704030509
-0.703949482
-0.703877516
-0.703813605
-0.703755789
-0.703709313
-0.703664798
-0.703631995
-0.703605021
-0.703584513
-0.703570628
-0.703560824
-0.70355987
-0.703564746
-0.703573914
-0.703588434
-0.703607406
-0.703630723
-0.703660506
-0.703690394
-0.703723463
-0.703759604
-0.703799668
-0.70384201
-0.703889174
-0.703935756
-0.70398467
-0.704035915
-0.704087637
-0.704141319
-0.704195797
-0.704249798
-0.704305919
-0.704363629
-0.70442277
-0.704481646
-0.704540417
-0.704603108
-0.704661296
-0.704723404
-0.704783711
-0.704846827
-0.704909201
-0.704972317
-0.705034744
-0.705099025
-0.705163519
-0.70523098
-0.70529701
-0.705366591
-0.70543702
-0.705512378
-0.705588636
-0.705671571
-0.705756256
-0.705845497
-0.705939773
-0.70603919
-0.706141998
-0.706250954
-0.706361287
-0.70647941
-0.706600501
-0.706727157
-0.70685837
-0.706996048
-0.707140615
-0.707289475
-0.707445012
-0.707607385
-0.70777368
-0.70794803
-0.708128951
-0.708315013
-0.708506374
-0.708702875
-0.708904464
-0.709111511
-0.709321473
-0.709535091
-0.709752419
-0.709972291
-0.710191792
-0.710413677
-0.710634609
-0.710853474
-0.711070166
-0.711285003
-0.711495283
-0.7117018
-0.711904131
-0.71209936
-0.712291781
-0.712477525
-0.712657121
-0.712830729
-0.712999197
-0.713160987
-0.713317213
-0.713465013
-0.713608785
-0.713743549
-0.713874232
-0.713998185
-0.714114506
-0.714224786
-0.714329502
-0.714424414
-0.714513391
-0.71459691
-0.71467338
-0.714743067
-0.714806765
-0.714862992
-0.71491323
-0.714956102
-0.714991926
-0.715022981
-0.71504757
-0.715064316
-0.715075233
-0.715079366
-0.715076186
-0.715067866
-0.715051385
-0.715032519
-0.715010368
-0.714981274
-0.714947941
-0.714912541
-0.71487677
-0.714835912
-0.714798922
-0.714755732
-0.714713019
-0.714670518
-0.714631197
-0.714587318
-0.714547784
-0.714507456
-0.714469035
-0.714428866
-0.714389227
-0.714352449
-0.714317473
-0.714279688
-0.714248793
-0.714215989
-0.714185412
-0.714157908
-0.714131941
-0.714110161
-0.714087426
-0.714071316
-0.714053934
-0.714043176
-0.714034697
-0.714028815
-0.714032737
-0.714036446
-0.714046515
-0.714064374
-0.714084459
-0.714111221
-0.71414413
-0.714183239
-0.714227807
-0.714282656
-0.714339836
-0.714408092
-0.714479634
-0.714559337
-0.714644763
-0.71473586
-0.714835965
-0.714938402
-0.715046457
-0.715160712
-0.715279312
-0.715397965
-0.715520858
-0.715644016
-0.715767757
-0.715891921
-0.716018153
-0.716141046
-0.716261872
-0.716381373
-0.716498596
-0.716612056
-0.716722919
-0.716828324
-0.716930761
-0.717028429
-0.717122016
-0.717209721
-0.717291596
-0.717373843
-0.717447875
-0.717521007
-0.717586348
-0.717649729
-0.717711891
-0.717770396
-0.717830809
-0.717886294
-0.717947873
-0.718005954
-0.71806695
-0.718131179
-0.718197792
-0.718272407
-0.718349249
-0.718432555
-0.718524022
-0.718624022
-0.718729745
-0.71884453
-0.718967634
-0.719097151
-0.719236896
-0.719386604
-0.719544526
-0.719713206
-0.719890947
-0.72007828
-0.720274941
-0.720484267
-0.720700111
-0.720926766
-0.721164761
-0.721410176
-0.72166566
-0.721927556
-0.722200421
-0.722479593
-0.722768622
-0.723063851
-0.72336634
-0.723676089
-0.723988223
-0.724308624
-0.724634007
-0.724960555
-0.725292721
-0.725625364
-0.725960232
-0.726297379
-0.726634845
-0.726970031
-0.727300077
-0.727630441
-0.727954287
-0.728277072
-0.728592757
-0.728902294
-0.729207168
-0.729505683
-0.729797732
-0.730082734
-0.73036217
-0.730635672
-0.730901224
-0.731161371
-0.731413357
-0.731659143
-0.731897351
-0.732128245
-0.732352303
-0.732568465
-0.732778321
-0.732981288
-0.733180015
-0.733372277
-0.733558656
-0.733739207
-0.733916365
-0.734087217
-0.734254731
-0.734414508
-0.734572218
-0.734720601
-0.734865645
-0.735003058
-0.735135225
-0.735263841
-0.735386999
-0.735503161
-0.735617363
-0.735725047
-0.735831141
-0.735932518
-0.736030186
-0.736125151
-0.736218791
-0.736308616
-0.73639595
-0.736483496
-0.736569982
-0.736657634
-0.736746239
-0.736835587
-0.736926843
-0.737021331
-0.737118256
-0.737219263
-0.737322601
-0.737433358
-0.737546712
-0.737663617
-0.737789265
-0.737917828
-0.738054076
-0.738195304
-0.738344853
-0.738498536
-0.738654921
-0.738820314
-0.738987987
-0.739161648
-0.73933621
-0.739516124
-0.739700119
-0.739885386
-0.740074044
-0.740260742
-0.740451838
-0.740639701
-0.740831221
-0.741019985
-0.741211293
-0.741398256
-0.741585006
-0.741769849
-0.741954427
-0.742135401
-0.742312453
-0.742487174
-0.742659563
-0.742828879
-0.742993001
-0.743151983
-0.743307202
-0.743458817
-0.743603703
-0.743747316
-0.743884146
-0.744016684
-0.74414477
-0.744270472
-0.744391192
-0.744510057
-0.744625478
-0.744735069
-0.744844767
-0.744948529
-0.74505033
-0.745148634
-0.745244553
-0.745336444
-0.745422082
-0.745506555
-0.745588218
-0.745667391
-0.745743702
-0.745814131
-0.745883023
-0.745946881
-0.746008407
-0.746066276
-0.746121602
-0.746168342
-0.74621609
-0.746259227
-0.746296747
-0.746333789
-0.74636797
-0.746398919
-0.746427377
-0.74645541
-0.746482225
-0.746506602
-0.746533523
-0.746555569
-0.746577773
-0.746601091
-0.746624249
-0.746651064
-0.746674222
-0.746702203
-0.746731827
-0.746761927
-0.746797062
-0.746835271
-0.746876341
-0.746922976
-0.746970776
-0.747026208
-0.747084607
-0.747144649
-0.747211209
-0.747280207
-0.747355035
-0.747434049
-0.747516507
-0.747602993
-0.747692765
-0.747786246
-0.747882536
-0.747984019
-0.748087145
-0.74819255
-0.748301877
-0.748414012
-0.748529857
-0.748648139
-0.748772039
-0.74890039
-0.749033034
-0.749170023
-0.74931104
-0.74945884
-0.749611303
-0.749769967
-0.749934831
-0.750102238
-0.750278072
-0.75045698
-0.750643359
-0.750834084
-0.75103244
-0.751235513
-0.751445634
-0.751661743
-0.751884794
-0.75211447
-0.752351564
-0.752595601
-0.752847004
-0.753104661
-0.753368623
-0.753640482
-0.753918488
-0.754206934
-0.754494956
-0.754794795
-0.755099828
-0.755411061
-0.755728283
-0.756051439
-0.75637555
-0.756708087
-0.75704073
-0.757375174
-0.757711208
-0.758050687
-0.758388841
-0.758726412
-0.759062924
-0.759399753
-0.759731866
-0.760064561
-0.760395455
-0.760723223
-0.761049135
-0.761372557
-0.761693117
-0.76201055
-0.762326235
-0.762638634
-0.762948171
-0.763256278
-0.763560993
-0.763862687
-0.764162315
-0.764458603
-0.764755528
-0.765051022
-0.765344237
-0.765637241
-0.765930615
-0.766222399
-0.766513071
-0.766805915
-0.76709717
-0.767388477
-0.767678619
-0.767969555
-0.76826028
-0.768550633
-0.768842259
-0.769135845
-0.76942853
-0.769721904
-0.770015438
-0.770306745
-0.770597841
-0.770886816
-0.771174838
-0.771460157
-0.771742509
-0.772020727
-0.772296772
-0.772568154
-0.77283519
-0.773096715
-0.773352728
-0.773602277
-0.773847108
-0.77408309
-0.77431266
-0.77453428
-0.774749754
-0.774956059
-0.775155157
-0.775343232
-0.77552516
-0.775697019
-0.775860029
-0.776013817
-0.776158967
-0.776292883
-0.776417154
-0.776536284
-0.776645716
-0.776747676
-0.776841953
-0.776930929
-0.777012911
-0.777088427
-0.777156736
-0.777222502
-0.777280848
-0.77733469
-0.777384822
-0.777430874
-0.777474329
-0.777512696
-0.777545924
-0.77757454
-0.77760056
-0.777623348
-0.777640359
-0.777652441
-0.777660814
-0.777667916
-0.777668181
-0.777664842
-0.777659066
-0.777651116
-0.777638557
-0.777624514
-0.777605542
-0.777584132
-0.777560497
-0.777532516
-0.777503634
-0.777473322
-0.777440837
-0.777404483
-0.77737062
-0.777334372
-0.777299502
-0.777263625
-0.777227854
-0.777193302
-0.777161771
-0.777131246
-0.777104166
-0.777080372
-0.777063785
-0.777051226
-0.777043382
-0.777043912
-0.777053504
-0.777069508
-0.777095263
-0.777131617
-0.77717804
-0.777232253
-0.777300562
-0.77738
-0.777472368
-0.777573692
-0.777687788
-0.777816139
-0.777954983
-0.778104691
-0.778267065
-0.778440408
-0.778621753
-0.778814703
-0.77901608
-0.77922795
-0.779444324
-0.779673205
-0.779906431
-0.780147818
-0.78039567
-0.780649617
-0.780910082
-0.781174999
-0.781447175
-0.781723857
-0.782005254
-0.782290626
-0.782579814
-0.782872764
-0.783170537
-0.783471224
-0.783776946
-0.784084894
-0.784393636
-0.784706724
-0.785022091
-0.785339577
-0.785657488
-0.785978313
-0.786300887
-0.786623513
-0.786946564
-0.787272159
-0.787596216
-0.787920433
-0.78824571
-0.788570827
-0.788897376
-0.789223182
-0.789549889
-0.789877816
-0.790207385
-0.790538809
-0.790871875
-0.791205207
-0.791541877
-0.791879713
-0.792218026
-0.792561003
-0.79290133
-0.793246638
-0.793590621
-0.793934764
-0.79428251
-0.794627129
-0.794973603
-0.795319282
-0.795667876
-0.796012389
-0.796358863
-0.796703483
-0.797047307
-0.797392138
-0.797734479
-0.798076396
-0.798419107
-0.798759752
-0.799100132
-0.799437915
-0.799773684
-0.800111043
-0.800447608
-0.800781363
-0.801112999
-0.80144755
-0.801778814
-0.802108701
-0.802440284
-0.802768899
-0.8031008
-0.803431694
-0.803762641
-0.804095496
-0.804429463
-0.804763855
-0.805103599
-0.805440746
-0.805781073
-0.806122088
-0.806463634
-0.80680926
-0.807152926
-0.807497651
-0.807845026
-0.80819097
-0.808537497
-0.808883441
-0.809228379
-0.809572521
-0.809915551
-0.810254923
-0.810587937
-0.81091952
-0.81124522
-0.81156488
-0.811876696
-0.812181517
-0.812477594
-0.812766834
-0.813045423
-0.813315904
-0.813575892
-0.813824433
-0.814060839
-0.814287653
-0.814501801
-0.81470551
-0.814893903
-0.815073765
-0.81523794
-0.815391569
-0.815534812
-0.815665971
-0.815784996
-0.815895435
-0.815996547
-0.816087803
-0.816172222
-0.816247844
-0.816317849
-0.816381442
-0.816439576
-0.816492358
-0.816542861
-0.816589708
-0.816635124
-0.816676088
-0.816718642
-0.816758706
-0.816798504
-0.816837772
-0.81687773
-0.816917793
-0.816960029
-0.817001471
-0.817045297
-0.817089917
-0.81713899
-0.81718838
-0.817242805
-0.817299826
-0.817363154
-0.817433212
-0.817509364
-0.817593201
-0.817682813
-0.817783449
-0.817892669
-0.818008143
-0.818133791
-0.818267495
-0.818412062
-0.818563996
-0.818724726
-0.818898334
-0.819077984
-0.819267172
-0.819464362
-0.819671515
-0.819887253
-0.820109563
-0.820339397
-0.820574849
-0.820816236
-0.821063559
-0.821316234
-0.82157087
-0.821831282
-0.822094396
-0.822360479
-0.822630853
-0.822902129
-0.823174836
-0.823450881
-0.823727138
-0.824007317
-0.82428935
-0.82457414
-0.824859671
-0.825148276
-0.825440855
-0.825735501
-0.826033486
-0.826336028
-0.82664122
-0.826950227
-0.827262414
-0.827579901
-0.82790311
-0.828228652
-0.828562302
-0.828897329
-0.829239034
-0.829583335
-0.829935797
-0.830289638
-0.830647346
-0.831009825
-0.831375006
-0.831743313
-0.832114165
-0.832488195
-0.832863021
-0.83324055
-0.833617707
-0.833994812
-0.834374566
-0.834751512
-0.835130683
-0.83550853
-0.835885899
-0.836264488
-0.836639314
-0.83701663
-0.837391297
-0.837767448
-0.838142909
-0.838519166
-0.838894946
-0.839272209
-0.839650215
-0.840030658
-0.840411366
-0.840794618
-0.84117999
-0.841568382
-0.841957622
-0.842349406
-0.842742144
-0.84313875
-0.843537688
-0.843937898
-0.844339062
-0.844743511
-0.845147537
-0.845552728
-0.84595935
-0.846364224
-0.846767189
-0.847169466
-0.84756904
-0.847966547
-0.84836008
-0.848749797
-0.849134162
-0.849515983
-0.849891763
-0.850261448
-0.850628219
-0.850986246
-0.851339768
-0.851687673
-0.852029271
-0.85236573
-0.852695882
-0.853020257
-0.85333732
-0.853648341
-0.853953639
-0.854253637
-0.854545475
-0.85483143
-0.855110337
-0.855384103
-0.855651245
-0.855912081
-0.856168254
-0.856418332
-0.856663588
-0.856901742
-0.857136134
-0.85736422
-0.857588914
-0.857806719
-0.858021133
-0.858231412
-0.858436446
-0.858638459
-0.858835331
-0.859027593
-0.859216463
-0.859401412
-0.859581856
-0.859758591
-0.859933258
-0.860102415
-0.860268551
-0.860431295
-0.860592556
-0.860748888
-0.860905378
-0.861058584
-0.86121163
-0.861362398
-0.861512583
-0.861663456
-0.861813323
-0.861963614
-0.862113533
-0.862265202
-0.862419043
-0.862575163
-0.862732661
-0.862893233
-0.863055288
-0.863221212
-0.86339111
-0.863563976
-0.863741188
-0.863920307
-0.864105733
-0.864293013
-0.864484056
-0.864678862
-0.864877324
-0.865076952
-0.865279495
-0.865483415
-0.865689297
-0.865896238
-0.866102278
-0.866311021
-0.866519446
-0.866727235
-0.866935236
-0.867141912
-0.867348748
-0.867553145
-0.86775786
-0.867960509
-0.868162946
-0.868361567
-0.868562679
-0.868761353
-0.86895955
-0.869157164
-0.869357004
-0.869555149
-0.869756207
-0.869958273
-0.870163571
-0.870370195
-0.870579733
-0.870794305
-0.871012004
-0.871234154
-0.871461074
-0.871692551
-0.871929434
-0.872172305
-0.872421324
-0.872675747
-0.872937749
-0.873206004
-0.87348099
-0.873761645
-0.87404972
-0.874343359
-0.874644259
-0.87495263
-0.875266407
-0.875588769
-0.875917331
-0.876253206
-0.876593851
-0.87694271
-0.877296921
-0.877655955
-0.87802103
-0.878390556
-0.878764428
-0.879141586
-0.8795224
-0.879905705
-0.880290917
-0.880677508
-0.881066483
-0.881455511
-0.881846818
-0.882238443
-0.882628584
-0.883019626
-0.883408442
-0.883797259
-0.884182683
-0.884567843
-0.884948816
-0.885328994
-0.885704668
-0.886078911
-0.886449603
-0.886816639
-0.887179223
-0.887538628
-0.887893846
-0.88824403
-0.888589338
-0.888929453
-0.889263579
-0.889590817
-0.889912278
-0.890226584
-0.89053432
-0.890834053
-0.891125732
-0.891409991
-0.891685188
-0.891952967
-0.892211577
-0.892461761
-0.892703254
-0.892934732
-0.893159479
-0.893375164
-0.893582476
-0.893780567
-0.893969914
-0.894151895
-0.894325715
-0.894490632
-0.894649614
-0.894799269
-0.894941664
-0.895077116
-0.895205149
-0.895324809
-0.895438322
-0.895543568
-0.895640547
-0.895730637
-0.895812406
-0.895887022
-0.895953158
-0.89601373
-0.896064657
-0.896107158
-0.896143194
-0.896170221
-0.896189193
-0.89619958
-0.89620207
-0.896196082
-0.896183046
-0.896161954
-0.89613392
-0.896098096
-0.896055383
-0.89600488
-0.895948866
-0.895887499
-0.895820249
-0.895749503
-0.895673244
-0.895593065
-0.895510553
-0.89542624
-0.895338747
-0.895250777
-0.89516445
-0.895076374
-0.894990789
-0.894907112
-0.894826031
-0.894747918
-0.894675475
-0.894606583
-0.894543255
-0.894485598
-0.894434459
-0.894389467
-0.894352954
-0.894324285
-0.89430208
-0.894289945
-0.894286341
-0.894290845
-0.8943042
-0.894327305
-0.894359102
-0.89440137
-0.894452154
-0.894513483
-0.894584135
-0.894665597
-0.894756217
-0.894857583
-0.89496965
-0.895089972
-0.895222044
-0.895362371
-0.895512122
-0.89567114
-0.895839258
-0.896015643
-0.89620135
-0.896394958
-0.896597098
-0.896806508
-0.897024509
-0.897250533
-0.897483304
-0.897722937
-0.897970805
-0.898223899
-0.89848482
-0.898752036
-0.899024547
-0.899303835
-0.899587474
-0.899878437
-0.900173974
-0.900476203
-0.900783658
-0.901095707
-0.901413464
-0.90173599
-0.902065087
-0.902398276
-0.902736149
-0.903078718
-0.90342508
-0.903775683
-0.904130249
-0.904488165
-0.904847728
-0.905209009
-0.905573326
-0.905938199
-0.906302994
-0.906670321
-0.90703663
-0.907403094
-0.907768821
-0.908132767
-0.908495404
-0.90885713
-0.909215782
-0.909572431
-0.909926483
-0.910277144
-0.910625897
-0.91096988
-0.911311373
-0.911649315
-0.911983335
-0.912313964
-0.912641361
-0.912965259
-0.913285024
-0.913602405
-0.913914804
-0.91422397
-0.914530593
-0.914832764
-0.915130378
-0.915425766
-0.915717868
-0.916004777
-0.916289619
-0.916569692
-0.916846108
-0.917119557
-0.9173876
-0.917652146
-0.917912717
-0.918168995
-0.918420875
-0.918668251
-0.918909161
-0.919146627
-0.91937821
-0.919604388
-0.919824683
-0.920038938
-0.920245879
-0.920446673
-0.920641372
-0.920828335
-0.92100703
-0.92117979
-0.921343489
-0.921500404
-0.921648521
-0.921788425
-0.921920062
-0.922043856
-0.922158376
-0.922265264
-0.922362932
-0.922452704
-0.922533573
-0.922606598
-0.922669873
-0.922724828
-0.922771939
-0.922809724
-0.922839559
-0.922860651
-0.922874694
-0.92288063
-0.922878245
-0.92286754
-0.922849787
-0.92282541
-0.922793614
-0.922755034
-0.922708717
-0.922657048
-0.922599656
-0.922534738
-0.922464628
-0.922388793
-0.922306706
-0.922219796
-0.922127268
-0.922029601
-0.92192711
-0.921819533
-0.921707398
-0.921590546
-0.921469402
-0.921344231
-0.921213654
-0.921078254
-0.920938403
-0.920793783
-0.920644764
-0.920490181
-0.920330881
-0.920166441
-0.919997603
-0.9198232
-0.919642861
-0.919458443
-0.919269784
-0.919075509
-0.91887604
-0.918672596
-0.918464277
-0.918250924
-0.918033384
-0.917810173
-0.917582883
-0.917350663
-0.917113781
-0.916872817
-0.916628515
-0.916379921
-0.916127458
-0.915871869
-0.915614795
-0.915354436
-0.915092964
-0.914830009
-0.914565622
-0.914302242
-0.914037326
-0.913773204
-0.913509719
-0.913247558
-0.912987676
-0.912728218
-0.912472522
-0.912218999
-0.911969769
-0.911723824
-0.911482649
-0.911244706
-0.911014183
-0.91078721
-0.910566808
-0.910352819
-0.910145666
-0.909945296
-0.909751868
-0.909567026
-0.909389231
-0.909219386
-0.909059397
-0.908906934
-0.908764592
-0.908629563
-0.908503438
-0.90838648
-0.908280016
-0.908181182
-0.908091675
-0.908012556
-0.907941968
-0.907881237
-0.907829515
-0.907787755
-0.907756489
-0.907733596
-0.907720824
-0.907717856
-0.907725403
-0.907742557
-0.907770336
-0.907808211
-0.907856118
-0.907913314
-0.907981814
-0.908058803
-0.908145395
-0.908241219
-0.908347016
-0.908460343
-0.908583109
-0.908713718
-0.908853389
-0.909000362
-0.909153371
-0.909314043
-0.909481795
-0.909653713
-0.909832594
-0.910015682
-0.910202189
-0.910392575
-0.910586739
-0.910781874
-0.910979615
-0.911177733
-0.911375596
-0.911573565
-0.911769367
-0.911963839
-0.912154129
-0.912342825
-0.912527646
-0.91270844
-0.912884894
-0.913055937
-0.913222794
-0.913383826
-0.913539459
-0.913689537
-0.913833591
-0.913971772
-0.914104464
-0.914231193
-0.914351808
-0.914466417
-0.914576189
-0.914680073
-0.914777545
-0.914870411
-0.914957136
-0.915038948
-0.915115047
-0.915187341
-0.915253663
-0.915315072
-0.915371627
-0.915423387
-0.915471781
-0.915514059
-0.915552983
-0.915587599
-0.915617392
-0.915644684
-0.915668224
-0.915687482
-0.915703306
-0.915716194
-0.915724551
-0.915730401
-0.915731525
-0.915730958
-0.915725722
-0.915717577
-0.915706321
-0.915690566
-0.915673136
-0.915651811
-0.915627593
-0.915599809
-0.915569379
-0.915534085
-0.915496725
-0.915456767
-0.915413312
-0.915365618
-0.915315062
-0.915261485
-0.915205152
-0.915145428
-0.915082313
-0.915016123
-0.914947125
-0.914874364
-0.914799431
-0.914721371
-0.914640502
-0.914556772
-0.914471081
-0.914382528
-0.914292544
-0.914200229
-0.91410643
-0.914011624
-0.913914751
-0.913818143
-0.913719203
-0.913621165
-0.913522596
-0.913424716
-0.913327155
-0.913230971
-0.913135211
-0.913042789
-0.912952488
-0.912863882
-0.912778456
-0.912695679
-0.912616506
-0.912540089
-0.912467223
-0.912397483
-0.912331081
-0.912268601
-0.912210997
-0.912155989
-0.912105857
-0.912060441
-0.912018841
-0.911982169
-0.91195085
-0.911924194
-0.911903633
-0.91188784
-0.911878513
-0.911874698
-0.911877136
-0.91188588
-0.911900824
-0.911921968
-0.911950426
-0.911985137
-0.912026207
-0.912073478
-0.912127479
-0.912186938
-0.912252756
-0.912324934
-0.912402994
-0.912486777
-0.91257639
-0.912671567
-0.912771143
-0.912876547
-0.912985874
-0.913099228
-0.913217086
-0.913337382
-0.913460646
-0.913586401
-0.913714169
-0.913842043
-0.913970236
-0.914098693
-0.914225401
-0.914352057
-0.91447638
-0.914598372
-0.914717873
-0.914834672
-0.914947284
-0.91505661
-0.915161379
-0.915260902
-0.915356662
-0.915445957
-0.91553027
-0.915607906
-0.915678759
-0.915741981
-0.915797677
-0.915844736
-0.915883633
-0.915913787
-0.915935143
-0.915945954
-0.915947544
-0.915938588
-0.915919934
-0.915890681
-0.915850618
-0.915801069
-0.915740179
-0.915668637
-0.915586231
-0.915493227
-0.915388882
-0.915273514
-0.915146223
-0.915008492
-0.914859632
-0.91469975
-0.914528155
-0.914346015
-0.914152482
-0.913948455
-0.913733141
-0.91350744
-0.913270822
-0.913023394
-0.912766161
-0.912498807
-0.912221596
-0.911935005
-0.911639352
-0.911334478
-0.911021867
-0.910700618
-0.910371632
-0.910035227
-0.909691879
-0.909341642
-0.908984729
-0.908621402
-0.908251505
-0.907876308
-0.907496024
-0.907110811
-0.906721041
-0.906327721
-0.905930319
-0.905530427
-0.905127568
-0.904722959
-0.904316178
-0.903907595
-0.903498111
-0.903087515
-0.902676388
-0.902264095
-0.90185175
-0.901440994
-0.901029656
-0.900619377
-0.900210582
-0.89980343
-0.899398079
-0.898995803
-0.898596123
-0.898199834
-0.897808527
-0.897420029
-0.897036088
-0.89665803
-0.896284264
-0.895915161
-0.895551941
-0.895194391
-0.89484177
-0.89449519
-0.89415481
-0.893821055
-0.893492916
-0.893171137
-0.892856884
-0.892548141
-0.892247507
-0.891953921
-0.891667912
-0.891390224
-0.891119638
-0.890856947
-0.890602205
-0.89035536
-0.890115244
-0.889882972
-0.889656529
-0.88943618
-0.889220707
-0.889010162
-0.888804652
-0.888604282
-0.888406403
-0.888213028
-0.888022356
-0.887833168
-0.887647212
-0.887463218
-0.887278428
-0.887094327
-0.886910014
-0.886724748
-0.886538527
-0.886350134
-0.886160363
-0.885968684
-0.885774196
-0.885575999
-0.885375311
-0.885171708
-0.884962065
-0.88474993
-0.884533609
-0.884310823
-0.884083214
-0.883848981
-0.883608335
-0.88336096
-0.883106006
-0.882843422
-0.882574848
-0.882297266
-0.882011523
-0.881717884
-0.881415819
-0.881107182
-0.880790067
-0.88046426
-0.880132466
-0.879791132
-0.879443068
-0.879089546
-0.878727491
-0.878359078
-0.877985471
-0.877604127
-0.877218066
-0.876827819
-0.876432379
-0.876033335
-0.875631535
-0.875227191
-0.874821947
-0.874414212
-0.874005788
-0.873597258
-0.873189894
-0.872781152
-0.872375643
-0.871972518
-0.871571407
-0.871174748
-0.870780738
-0.870392452
-0.870008193
-0.869629764
-0.869257482
-0.868890817
-0.868531518
-0.868181229
-0.867839047
-0.867503384
-0.867177895
-0.866861734
-0.8665558
-0.866260412
-0.865975411
-0.865702969
-0.865441974
-0.865191472
-0.86495496
-0.864730425
-0.864519297
-0.864320252
-0.864132336
-0.863959364
-0.863797309
-0.863647442
-0.86350722
-0.863380776
-0.863263607
-0.863157725
-0.863061859
-0.862976062
-0.862899804
-0.86283282
-0.862775268
-0.862726832
-0.862687139
-0.862655078
-0.862631231
-0.862613637
-0.862602614
-0.86259864
-0.862598481
-0.862604098
-0.862614591
-0.862629959
-0.862648984
-0.862672407
-0.862699328
-0.862728793
-0.862760642
-0.862794187
-0.862830647
-0.8628661
-0.862904573
-0.862941404
-0.862979454
-0.863017556
-0.863056295
-0.863093603
-0.863129691
-0.863165515
-0.863199908
-0.863232765
-0.8632626
-0.863288832
-0.863312891
-0.863334301
-0.863352213
-0.863368323
-0.863378816
-0.863388726
-0.863393919
-0.863396145
-0.863394078
-0.863387719
-0.863377385
-0.863362388
-0.863343204
-0.863317873
-0.863289733
-0.863254969
-0.863214217
-0.863170179
-0.863120894
-0.86306382
-0.863001499
-0.862933561
-0.862859317
-0.862779667
-0.862691909
-0.862600865
-0.862501131
-0.862394189
-0.862283114
-0.862165361
-0.862039554
-0.861907599
-0.861768702
-0.86162334
-0.861472996
-0.86131571
-0.86115286
-0.860983333
-0.860809354
-0.86063034
-0.86044502
-0.860255726
-0.860061769
-0.859865479
-0.85966707
-0.859463838
-0.859259653
-0.859052765
-0.85884593
-0.85863724
-0.858428762
-0.858218482
-0.85800958
-0.857801791
-0.857593472
-0.857384994
-0.857179166
-0.856974079
-0.856770954
-0.856568252
-0.856367564
-0.856168784
-0.855971488
-0.855775887
-0.8555814
-0.855389032
-0.855195445
-0.855001593
-0.854809437
-0.854613625
-0.854415428
-0.854216701
-0.854014264
-0.853808701
-0.853600117
-0.853384484
-0.853166415
-0.852943098
-0.852714271
-0.852480621
-0.852242943
-0.852000125
-0.851752961
-0.851500551
-0.851244167
-0.850983119
-0.85071852
-0.850449841
-0.850180526
-0.849905276
-0.849628542
-0.849347144
-0.849064687
-0.848780163
-0.848492353
-0.84820184
-0.847910427
-0.847615622
-0.847317213
-0.84701891
-0.846718223
-0.846416317
-0.84611192
-0.845805085
-0.84549878
-0.845190621
-0.844880554
-0.844571122
-0.844261479
-0.843951306
-0.843641768
-0.843334722
-0.843027781
-0.842723119
-0.842419358
-0.842118035
-0.841818937
-0.841523761
-0.8412315
-0.8409421
-0.840653495
-0.840370349
-0.840088368
-0.839810256
-0.839536013
-0.839261134
-0.838989381
-0.838717575
-0.838447624
-0.838175183
-0.837904808
-0.837632737
-0.837359978
-0.8370869
-0.836813239
-0.836535657
-0.836257916
-0.835978321
-0.835695333
-0.835408742
-0.83512178
-0.834831851
-0.834537364
-0.834242611
-0.833942931
-0.833641979
-0.833338377
-0.833031754
-0.832721369
-0.832409818
-0.832093444
-0.831777812
-0.831458418
-0.831137381
-0.830816768
-0.830491862
-0.8301695
-0.829845549
-0.829521332
-0.829199129
-0.828878781
-0.828558592
-0.828240258
-0.827924891
-0.827611909
-0.82730269
-0.826998293
-0.826698188
-0.826403489
-0.826114089
-0.825831738
-0.825555428
-0.825287385
-0.825026496
-0.824773344
-0.824527505
-0.824291364
-0.824065239
-0.823847964
-0.823641023
-0.823443462
-0.823255811
-0.823081302
-0.822915325
-0.822761059
-0.822618188
-0.822487505
-0.822367421
-0.822258412
-0.822159102
-0.822073358
-0.821994715
-0.821929002
-0.821871716
-0.821825081
-0.821787085
-0.821758362
-0.821738807
-0.821729321
-0.821726195
-0.821733137
-0.82174665
-0.821767424
-0.82179514
-0.821829427
-0.821870391
-0.821917291
-0.821966522
-0.822022642
-0.822079399
-0.822140024
-0.822205683
-0.822273781
-0.822345693
-0.822417606
-0.822495189
-0.822569328
-0.82265486
-0.822735145
-0.822819671
-0.82290674
-0.822996246
-0.823087926
-0.823180771
-0.823275047
-0.823373192
-0.823472344
-0.82357494
-0.823679391
-0.823786491
-0.823896401
-0.824009967
-0.824125652
-0.824243511
-0.824364231
-0.824486435
-0.824610917
-0.824737149
-0.824865182
-0.824996289
-0.825126919
-0.825262477
-0.825399785
-0.825541066
-0.825689078
-0.825837567
-0.825993634
-0.826153146
-0.826321137
-0.826493844
-0.826670737
-0.826856799
-0.827048425
-0.827247735
-0.827450596
-0.827661988
-0.827877832
-0.828102208
-0.828330612
-0.828564474
-0.828802258
-0.829044334
-0.829290067
-0.82953882
-0.829788951
-0.830040619
-0.830292499
-0.830544909
-0.830797266
-0.831048775
-0.831296787
-0.831544321
-0.831787616
-0.83202646
-0.832260693
-0.832487931
-0.832713314
-0.832929953
-0.833142246
-0.833346591
-0.83354394
-0.833736785
-0.833920939
-0.834100111
-0.834270592
-0.834434926
-0.834590993
-0.834738051
-0.83487769
-0.835009857
-0.835133015
-0.835246687
-0.835351668
-0.835446845
-0.835531423
-0.835608582
-0.8356735
-0.835728083
-0.835772651
-0.835805137
-0.835826811
-0.835836244
-0.835830892
-0.835813934
-0.835783038
-0.835736721
-0.835678269
-0.835601958
-0.835512557
-0.835407523
-0.835286008
-0.835148542
-0.834996026
-0.834829042
-0.834645259
-0.834447592
-0.834232331
-0.83400663
-0.833765083
-0.833509706
-0.833242935
-0.832963657
-0.832671024
-0.832366786
-0.832054069
-0.831727733
-0.831391646
-0.831046602
-0.830690748
-0.83032615
-0.829953444
-0.829573637
-0.829185457
-0.828790864
-0.828388905
-0.827981488
-0.827571422
-0.827156479
-0.826735549
-0.826314512
-0.825890614
-0.825463006
-0.825036088
-0.824608745
-0.824180448
-0.823753635
-0.823329366
-0.822907429
-0.822490579
-0.822076537
-0.821669385
-0.821269652
-0.820878027
-0.820493928
-0.820119685
-0.81975514
-0.819401352
-0.819059277
-0.818729549
-0.818411426
-0.81810634
-0.817816464
-0.81754062
-0.817279646
-0.817036383
-0.816807274
-0.81659354
-0.816396174
-0.81621502
-0.816050908
-0.815900077
-0.815766856
-0.815649008
-0.81554647
-0.815459555
-0.815388087
-0.815332004
-0.815290446
-0.815261506
-0.81524866
-0.815250208
-0.815263811
-0.815290351
-0.815328549
-0.815378029
-0.815437186
-0.815506921
-0.815583778
-0.815670131
-0.815761636
-0.815862044
-0.815966733
-0.816076536
-0.81618917
-0.816307113
-0.816427483
-0.816551065
-0.816675304
-0.816802044
-0.816926606
-0.817050734
-0.817174883
-0.817294702
-0.817414691
-0.817530323
-0.817643073
-0.817750285
-0.817854005
-0.817952685
-0.818046685
-0.818133288
-0.818218317
-0.818296218
-0.818370621
-0.818438718
-0.818501251
-0.818558272
-0.81861169
-0.818659014
-0.818700614
-0.818738346
-0.818768976
-0.818795473
-0.818818048
-0.818833788
-0.81884428
-0.818851647
-0.818852124
-0.818846718
-0.818838133
-0.818822924
-0.818802521
-0.818775865
-0.818746454
-0.818710683
-0.818670037
-0.818624727
-0.81857629
-0.818521972
-0.81846389
-0.81840247
-0.818336281
-0.81826723
-0.81819537
-0.818118476
-0.818039621
-0.817958222
-0.817872425
-0.817784085
-0.817692617
-0.817600196
-0.817503058
-0.8174038
-0.81730078
-0.817196488
-0.817087692
-0.816977517
-0.816863422
-0.81674604
-0.816625108
-0.816503222
-0.816377414
-0.816250017
-0.816119334
-0.815986108
-0.815848005
-0.815704763
-0.815560461
-0.815412131
-0.815259243
-0.815102434
-0.81494181
-0.814774773
-0.814604663
-0.814430048
-0.814249974
-0.814065026
-0.813875414
-0.81368135
-0.813483683
-0.813281829
-0.81307351
-0.812862223
-0.812647439
-0.812429475
-0.812207272
-0.811983531
-0.811754439
-0.811525081
-0.811292809
-0.811057781
-0.810822117
-0.810584863
-0.810348193
-0.810109561
-0.809871831
-0.809633941
-0.809395998
-0.809155671
-0.808917569
-0.808677666
-0.808437021
-0.808198495
-0.807958327
-0.80771747
-0.807477884
-0.807239624
-0.807001893
-0.806765858
-0.806530989
-0.806298823
-0.806068299
-0.805839525
-0.805612711
-0.805388123
-0.805166661
-0.804948591
-0.804730733
-0.804520613
-0.804312029
-0.804108585
-0.803910759
-0.803715741
-0.803526235
-0.803340598
-0.803162432
-0.802986704
-0.802814633
-0.802650511
-0.802491052
-0.802336522
-0.802188139
-0.802047228
-0.801913631
-0.801788141
-0.801671449
-0.801565673
-0.801467793
-0.801381095
-0.801306957
-0.801242622
-0.801190953
-0.801152638
-0.801125559
-0.801111409
-0.801113158
-0.801126777
-0.80115195
-0.801190741
-0.801242516
-0.801307858
-0.801386607
-0.801475106
-0.801577968
-0.801692752
-0.801818507
-0.801952475
-0.802099639
-0.802256024
-0.802420782
-0.802593702
-0.802773669
-0.802959571
-0.803150137
-0.803347434
-0.803544783
-0.80374775
-0.803954161
-0.804158982
-0.804368414
-0.804576786
-0.804784363
-0.804991728
-0.80520116
-0.805408154
-0.805612817
-0.805817903
-0.806021294
-0.8062223
-0.806426538
-0.806627544
-0.806828603
-0.807027701
-0.807228654
-0.807427116
-0.807625896
-0.807825418
-0.808024357
-0.808222395
-0.808418049
-0.80861561
-0.808812165
-0.809006917
-0.809200663
-0.80939372
-0.809584233
-0.809775382
-0.809963828
-0.810153599
-0.810339449
-0.810526888
-0.810711413
-0.810897686
-0.811082741
-0.811267425
-0.811453062
-0.811641032
-0.8118281
-0.812015275
-0.812203827
-0.812393704
-0.812585383
-0.812780507
-0.812976743
-0.813175576
-0.813373667
-0.813575309
-0.81377764
-0.813983362
-0.814188237
-0.814397191
-0.81460461
-0.814814094
-0.815021142
-0.815231739
-0.815438575
-0.815646152
-0.815853093
-0.816056165
-0.816258178
-0.816457594
-0.816653089
-0.816844768
-0.817030087
-0.817210267
-0.817382285
-0.817546937
-0.817703481
-0.817849055
-0.817984031
-0.818108195
-0.818217681
-0.818319323
-0.818406657
-0.818477298
-0.818535697
-0.818578304
-0.818602363
-0.818611425
-0.818603317
-0.818577774
-0.818535644
-0.818473959
-0.81839256
-0.818294946
-0.818177193
-0.818039621
-0.817885515
-0.817712066
-0.817516995
-0.817303854
-0.817073065
-0.816821291
-0.816553036
-0.816265491
-0.815960511
-0.815638203
-0.815299254
-0.814942552
-0.814571223
-0.814186011
-0.813784688
-0.813370594
-0.812943675
-0.812507164
-0.812057882
-0.811599379
-0.811131443
-0.810657571
-0.810175433
-0.809688048
-0.809195257
-0.808699606
-0.808199926
-0.807696378
-0.807191399
-0.806687533
-0.806181494
-0.805676039
-0.805172968
-0.80467191
-0.804171648
-0.803677321
-0.803186226
-0.802697729
-0.802218187
-0.801740977
-0.801273147
-0.800811093
-0.80035826
-0.799914913
-0.79947978
-0.799053073
-0.798640145
-0.79823596
-0.797843646
-0.79746421
-0.797095903
-0.796739996
-0.796396436
-0.796065913
-0.795748268
-0.795442175
-0.795151238
-0.794873815
-0.794606726
-0.794358026
-0.794120454
-0.793898039
-0.793688713
-0.793495232
-0.793316431
-0.79315215
-0.793003873
-0.792870222
-0.792750403
-0.792647489
-0.792561692
-0.792489196
-0.792434718
-0.792397146
-0.792373828
-0.792367628
-0.792379181
-0.792405625
-0.792449875
-0.79250944
-0.792585592
-0.792680292
-0.792789141
-0.792916062
-0.793057344
-0.793216007
-0.793388449
-0.793577956
-0.793779756
-0.793995972
-0.794224375
-0.794465497
-0.794720292
-0.794985262
-0.795262791
-0.795552773
-0.795850864
-0.796157699
-0.79647704
-0.796802793
-0.797139888
-0.797484719
-0.797838241
-0.798197699
-0.798565052
-0.798940514
-0.799322176
-0.799708449
-0.800099862
-0.800496097
-0.800897526
-0.80129922
-0.801703828
-0.802110715
-0.802516966
-0.802922317
-0.80332825
-0.803730368
-0.804131849
-0.804526389
-0.804917219
-0.805301372
-0.805679748
-0.806050547
-0.80641541
-0.806770734
-0.807120175
-0.807460502
-0.807793463
-0.808117997
-0.808436438
-0.808743749
-0.809046027
-0.809338076
-0.80962366
-0.809901401
-0.810171723
-0.810432029
-0.810685711
-0.810930596
-0.811168803
-0.811397578
-0.811618933
-0.811831333
-0.812033452
-0.812226667
-0.812410132
-0.81258374
-0.812746432
-0.812898418
-0.813041396
-0.813171761
-0.813292004
-0.813402337
-0.813500111
-0.813585378
-0.813659834
-0.813720406
-0.813770327
-0.813807634
-0.813832542
-0.81384314
-0.813843511
-0.813828832
-0.813802123
-0.813763808
-0.813711291
-0.81364648
-0.813570699
-0.813482835
-0.813384213
-0.813273085
-0.813151782
-0.813018237
-0.812876108
-0.812722955
-0.812557773
-0.812383741
-0.812198528
-0.812002238
-0.811798795
-0.811580301
-0.811355024
-0.81111936
-0.810874528
-0.810620952
-0.810360911
-0.810090059
-0.809812636
-0.80953108
-0.809242263
-0.808947299
-0.80864889
-0.808348256
-0.808043276
-0.807737766
-0.807428865
-0.807121341
-0.806813341
-0.80650958
-0.806203593
-0.805902217
-0.805603331
-0.805308844
-0.805017166
-0.80473386
-0.804453946
-0.804183307
-0.803917966
-0.80366492
-0.80342242
-0.803189618
-0.802970011
-0.802764395
-0.802573723
-0.802398154
-0.802238377
-0.8020954
-0.801972772
-0.801866784
-0.801782153
-0.801717818
-0.801675953
-0.801655233
-0.801656504
-0.80168067
-0.801728364
-0.801801761
-0.801895401
-0.80201522
-0.802156661
-0.802323274
-0.802508805
-0.802718343
-0.80294892
-0.803202601
-0.803475732
-0.803771067
-0.80408601
-0.804422839
-0.804778799
-0.805153625
-0.805546204
-0.805957383
-0.806385892
-0.806830299
-0.807290445
-0.807761931
-0.808250164
-0.808749473
-0.809260652
-0.809781847
-0.810312581
-0.810852536
-0.81139514
-0.811948343
-0.81250372
-0.813064183
-0.813624805
-0.814185905
-0.814750767
-0.815311601
-0.815871535
-0.816429613
-0.81698287
-0.817531887
-0.818075498
-0.81861275
-0.819142053
-0.819666322
-0.820181634
-0.820685394
-0.821181576
-0.821664934
-0.822140713
-0.82260123
-0.82305136
-0.823488136
-0.823914578
-0.824326552
-0.824724006
-0.82510959
-0.82547954
-0.825837196
-0.82617535
-0.826498507
-0.826807091
-0.82709861
-0.827373118
-0.827630298
-0.827872268
-0.828096962
-0.828302154
-0.828493356
-0.828665322
-0.828822767
-0.828962405
-0.829086252
-0.82919436
-0.829284237
-0.829360655
-0.829420326
-0.829464417
-0.829494358
-0.829508667
-0.82950819
-0.829493881
-0.829466059
-0.829424406
-0.829371624
-0.829305541
-0.829228382
-0.829139776
-0.8290402
-0.82893045
-0.828811797
-0.828682386
-0.828543171
-0.828398497
-0.828243649
-0.828082601
-0.827915564
-0.827741002
-0.827560717
-0.82737545
-0.827184672
-0.826988595
-0.826787642
-0.826581337
-0.826371004
-0.826157491
-0.825937779
-0.825715999
-0.825488496
-0.82525527
-0.825021355
-0.824782194
-0.824537362
-0.824289456
-0.82403551
-0.8237769
-0.823513732
-0.823244629
-0.822971286
-0.822689677
-0.822404728
-0.822111831
-0.821816443
-0.821511198
-0.821202191
-0.820886188
-0.820561707
-0.820233145
-0.819897799
-0.819554293
-0.819205699
-0.818850587
-0.81848938
-0.818124305
-0.817751705
-0.817375396
-0.816995005
-0.81660868
-0.816221188
-0.815829087
-0.815433381
-0.81503492
-0.814635187
-0.814233652
-0.813827931
-0.813423429
-0.81301474
-0.812607959
-0.812200382
-0.811795933
-0.81138947
-0.810986822
-0.810590269
-0.810195941
-0.809809563
-0.809429967
-0.809057685
-0.808694253
-0.808339618
-0.807994575
-0.807661561
-0.807339729
-0.807028337
-0.806728974
-0.806444132
-0.806172485
-0.805914829
-0.805673919
-0.805445674
-0.805235394
-0.805038787
-0.804857919
-0.80469332
-0.804542764
-0.804405828
-0.804285532
-0.804177265
-0.804079756
-0.803997245
-0.803923954
-0.803866244
-0.803816589
-0.803775942
-0.803747909
-0.803727665
-0.803716324
-0.803711926
-0.803715688
-0.803727612
-0.803747008
-0.803772816
-0.803804135
-0.803839641
-0.803882778
-0.803929148
-0.803981241
-0.804034341
-0.804094118
-0.80415575
-0.804219501
-0.804286698
-0.804356173
-0.804427608
-0.804498673
-0.804574084
-0.804647957
-0.8047266
-0.804804713
-0.804885052
-0.804966821
-0.805048909
-0.805132798
-0.805216847
-0.805303492
-0.805390084
-0.805477524
-0.805565705
-0.805652191
-0.805740956
-0.805829297
-0.805916472
-0.806002587
-0.806087854
-0.806172591
-0.806257541
-0.80633984
-0.806422246
-0.806503432
-0.806582923
-0.806662785
-0.806742276
-0.806821767
-0.806900834
-0.806982285
-0.807064055
-0.80714752
-0.807232045
-0.80731567
-0.807402315
-0.807490709
-0.807580374
-0.807674492
-0.8077658
-0.807861613
-0.807958274
-0.808057055
-0.808156259
-0.808256524
-0.808357901
-0.808461557
-0.808563305
-0.808666484
-0.808768657
-0.808870458
-0.808971729
-0.809072153
-0.809170615
-0.809269926
-0.809367011
-0.809464625
-0.809561339
-0.809656781
-0.809752382
-0.809848566
-0.809942895
-0.810038814
-0.810131607
-0.810225565
-0.810321749
-0.810417032
-0.810513216
-0.810610512
-0.810711148
-0.810812313
-0.81091634
-0.811024395
-0.81113494
-0.811249142
-0.811367106
-0.811489151
-0.811616284
-0.811747232
-0.81188385
-0.812024019
-0.812170017
-0.812320361
-0.812474679
-0.812632919
-0.812794921
-0.812960951
-0.813129101
-0.813300112
-0.813477959
-0.813658351
-0.813839431
-0.814023161
-0.814210812
-0.814402809
-0.814595336
-0.814793533
-0.814994168
-0.815197187
-0.815401426
-0.81561054
-0.815819707
-0.816030516
-0.816241114
-0.816453249
-0.816665807
-0.816878366
-0.817086526
-0.817296223
-0.817500567
-0.817703958
-0.817901519
-0.818094894
-0.81828228
-0.818463837
-0.818639353
-0.818806761
-0.818965372
-0.819116616
-0.819258534
-0.819392767
-0.819517091
-0.819633254
-0.81973993
-0.819836856
-0.819925144
-0.820001985
-0.820073686
-0.820133251
-0.820184602
-0.820228004
-0.820263033
-0.820288841
-0.820309191
-0.8203182
-0.820322121
-0.820315338
-0.820303573
-0.82028386
-0.820257469
-0.820223182
-0.820184284
-0.820138179
-0.82008598
-0.820027634
-0.819963035
-0.819892288
-0.819815394
-0.819731504
-0.819641839
-0.819546556
-0.819444012
-0.819334792
-0.819219583
-0.819097167
-0.818967809
-0.818832728
-0.818689856
-0.818541685
-0.818384929
-0.818221655
-0.818050114
-0.817871206
-0.817689172
-0.817497811
-0.817300197
-0.81709633
-0.816886368
-0.816673279
-0.816452931
-0.816229509
-0.816002642
-0.815772012
-0.815541648
-0.815309322
-0.815075619
-0.814843718
-0.814614202
-0.814384261
-0.814160415
-0.813940596
-0.813726872
-0.81351956
-0.813319243
-0.813127829
-0.812944629
-0.81277367
-0.812612357
-0.812463179
-0.812325395
-0.8121998
-0.812087505
-0.811987983
-0.811903193
-0.811832287
-0.811775795
-0.811732658
-0.811702717
-0.811687084
-0.811687349
-0.811697682
-0.811722589
-0.811757671
-0.811804836
-0.811864507
-0.811932657
-0.812012254
-0.812100277
-0.812198316
-0.812304674
-0.812419936
-0.812543677
-0.812674678
-0.812811349
-0.812958407
-0.813108486
-0.813267839
-0.813431961
-0.813603608
-0.813778011
-0.813960151
-0.814147908
-0.814338792
-0.814538526
-0.814739267
-0.81494854
-0.815164861
-0.81538256
-0.815607148
-0.815835976
-0.816067824
-0.81630635
-0.816546942
-0.816791191
-0.817042276
-0.817293891
-0.817550381
-0.817809098
-0.818071523
-0.818337924
-0.818604589
-0.818873798
-0.819147247
-0.819420377
-0.819697111
-0.819974163
-0.820251374
-0.820530069
-0.820809347
-0.821085127
-0.821363981
-0.821639762
-0.821916072
-0.822187718
-0.82245661
-0.82272407
-0.822990152
-0.823249133
-0.823502815
-0.823752204
-0.82399587
-0.824231375
-0.824462164
-0.824681929
-0.824896343
-0.825099627
-0.82529385
-0.825477898
-0.825650287
-0.825813455
-0.825962739
-0.826101901
-0.826228397
-0.826342122
-0.826444612
-0.826533006
-0.826608628
-0.826672645
-0.82672442
-0.826761834
-0.826785363
-0.82679734
-0.826796863
-0.826781707
-0.826752348
-0.82671149
-0.826654998
-0.826586212
-0.826502164
-0.826406457
-0.826298243
-0.826175774
-0.826039209
-0.825892787
-0.825730361
-0.82555617
-0.825369472
-0.825170374
-0.824958292
-0.82473593
-0.824502386
-0.82425872
-0.82400117
-0.823736836
-0.823461215
-0.823178174
-0.822885913
-0.82258618
-0.822279239
-0.821964932
-0.821646015
-0.821320526
-0.820991275
-0.820656672
-0.820319313
-0.819978509
-0.81963426
-0.819288369
-0.818940835
-0.818592453
-0.81824333
-0.817893517
-0.817544075
-0.817195799
-0.816849325
-0.816505554
-0.816166128
-0.815828345
-0.815495384
-0.815163801
-0.814837041
-0.814512824
-0.814193324
-0.813878116
-0.813564021
-0.813256922
-0.812951889
-0.812649771
-0.812351839
-0.812057034
-0.811764508
-0.811476539
-0.811190266
-0.81090643
-0.810625722
-0.810345066
-0.810065841
-0.809786828
-0.809509246
-0.809230074
-0.808949313
-0.808671996
-0.808392824
-0.808112486
-0.80783183
-0.807549426
-0.807267021
-0.806984935
-0.806700252
-0.806415886
-0.806130567
-0.805842598
-0.80555463
-0.805266979
-0.804976678
-0.804689716
-0.804402224
-0.804115739
-0.803829201
-0.803546214
-0.803262909
-0.802980822
-0.802700802
-0.80242269
-0.802145002
-0.801868798
-0.801595032
-0.801322749
-0.80105089
-0.800779508
-0.800511677
-0.800242468
-0.79997363
-0.799707071
-0.79943924
-0.799171462
-0.798901511
-0.798632832
-0.798364206
-0.798093937
-0.797823191
-0.797552233
-0.797281699
-0.797007827
-0.796732629
-0.796455895
-0.796178419
-0.795900042
-0.795616472
-0.795334385
-0.795048324
-0.79476025
-0.79446873
-0.79417472
-0.793879597
-0.793579863
-0.79327499
-0.792966035
-0.792652099
-0.792334719
-0.79201082
-0.791678654
-0.791343362
-0.790999908
-0.790650732
-0.790292599
-0.789927259
-0.789553811
-0.78917358
-0.788784711
-0.788388634
-0.787986887
-0.787577033
-0.78716066
-0.786737291
-0.786310107
-0.785878313
-0.785442968
-0.785002907
-0.784561468
-0.784117856
-0.78367382
-0.783230473
-0.782788822
-0.782346694
-0.781907639
-0.781469645
-0.781032392
-0.7806024
-0.780171612
-0.779744905
-0.77932318
-0.778904051
-0.778491123
-0.778082646
-0.777677719
-0.777280371
-0.776887792
-0.776501467
-0.776120335
-0.775750649
-0.775384249
-0.775026329
-0.774676251
-0.774333592
-0.773998459
-0.773673024
-0.773352357
-0.773043774
-0.772746425
-0.77245321
-0.772172077
-0.77190112
-0.771640284
-0.771390788
-0.771148394
-0.770917818
-0.770699324
-0.770488991
-0.770289363
-0.770100917
-0.76992397
-0.769756721
-0.769604576
-0.769463188
-0.769332293
-0.769213693
-0.769104791
-0.76901115
-0.768926254
-0.768854871
-0.768793504
-0.768743902
-0.76870368
-0.768675911
-0.768657734
-0.768649255
-0.768649255
-0.768659483
-0.768677448
-0.768704581
-0.768738338
-0.768778507
-0.768825248
-0.768877924
-0.768933196
-0.768995093
-0.76905964
-0.76912885
-0.769200021
-0.769272357
-0.769346125
-0.769422065
-0.769496521
-0.769569865
-0.769642255
-0.769710352
-0.769774739
-0.769833245
-0.769889736
-0.769940398
-0.769981257
-0.770019942
-0.770052586
-0.77007654
-0.770094876
-0.770109131
-0.770116656
-0.770119518
-0.770117292
-0.770112046
-0.770103514
-0.770093551
-0.770081097
-0.770066948
-0.770053699
-0.770038808
-0.770027043
-0.770012046
-0.769999539
-0.769988835
-0.769980356
-0.769973466
-0.769970605
-0.769970499
-0.769975321
-0.769982581
-0.769996466
-0.770010297
-0.770034462
-0.770064616
-0.770097949
-0.770137695
-0.770183958
-0.770236475
-0.770296252
-0.770364032
-0.770437905
-0.770519039
-0.770610347
-0.770705047
-0.770811247
-0.770922428
-0.77104336
-0.771168479
-0.771301123
-0.771440974
-0.771586972
-0.77173705
-0.771893806
-0.772053477
-0.772222898
-0.772392638
-0.7725672
-0.772742875
-0.772924962
-0.77310477
-0.773289083
-0.773476893
-0.773660994
-0.773849917
-0.774035078
-0.774225432
-0.774412394
-0.774596548
-0.774783776
-0.774969943
-0.775152083
-0.775330991
-0.775509421
-0.775684036
-0.775852716
-0.776015248
-0.776175978
-0.776331038
-0.776478309
-0.776621922
-0.776759388
-0.776888428
-0.77701307
-0.777130928
-0.777242798
-0.777347779
-0.777447938
-0.777541684
-0.777628541
-0.777711583
-0.777788159
-0.777858429
-0.777927374
-0.777986409
-0.778040516
-0.778091337
-0.778136329
-0.778175968
-0.77821158
-0.778239667
-0.778266376
-0.778287202
-0.778304796
-0.778318151
-0.778325623
-0.778329968
-0.778330657
-0.778328273
-0.77831974
-0.778307817
-0.778296476
-0.778275968
-0.778255194
-0.77822875
-0.778198225
-0.778164627
-0.778126472
-0.77808768
-0.778043536
-0.777996001
-0.777945551
-0.777892557
-0.777835906
-0.777777189
-0.777714179
-0.777647884
-0.777581482
-0.777507927
-0.77743363
-0.777353715
-0.777270832
-0.777183339
-0.777092879
-0.776998232
-0.776900034
-0.776795159
-0.77668933
-0.776575764
-0.77645727
-0.776330032
-0.776197388
-0.776060505
-0.775915831
-0.775761778
-0.775602319
-0.775439363
-0.77526496
-0.775084728
-0.774898136
-0.774704497
-0.774505982
-0.774300206
-0.7740868
-0.773867776
-0.773642446
-0.773410757
-0.773171966
-0.772925916
-0.77267695
-0.772419188
-0.772157769
-0.771890044
-0.77161633
-0.771339967
-0.771060106
-0.770777437
-0.770491323
-0.770201128
-0.769910033
-0.769615758
-0.76932037
-0.76902318
-0.768726891
-0.768429012
-0.768132035
-0.76783352
-0.767534051
-0.767237762
-0.766939619
-0.766642641
-0.766344073
-0.766045665
-0.76574609
-0.765444926
-0.765143762
-0.764841431
-0.764537882
-0.764234704
-0.763927022
-0.763623897
-0.763317804
-0.763008425
-0.762700372
-0.762392159
-0.762080502
-0.761771389
-0.761459096
-0.761150459
-0.760838643
-0.760532286
-0.760228366
-0.759925346
-0.759626355
-0.759332716
-0.759043422
-0.758761441
-0.758485237
-0.758213697
-0.757952119
-0.757695999
-0.757446133
-0.757205541
-0.75697152
-0.756746189
-0.75653167
-0.75631996
-0.756116887
-0.755922346
-0.755732681
-0.755546673
-0.755367606
-0.755190607
-0.75501827
-0.754849008
-0.754680169
-0.754514934
-0.754347951
-0.754183034
-0.754016474
-0.753848695
-0.753682082
-0.753511866
-0.753336668
-0.75315935
-0.752978111
-0.752793428
-0.752601696
-0.752402439
-0.752199525
-0.751988821
-0.751773083
-0.751550986
-0.751315269
-0.75107473
-0.75082428
-0.750564186
-0.750293705
-0.750013368
-0.749727148
-0.749427997
-0.749122434
-0.748808975
-0.74848513
-0.748154289
-0.74781481
-0.747470403
-0.747119106
-0.746762086
-0.746400456
-0.746031247
-0.745659389
-0.745281066
-0.744901735
-0.744518218
-0.744133218
-0.743749595
-0.743362051
-0.742976096
-0.74258977
-0.742207472
-0.741827506
-0.74144807
-0.741072873
-0.740701916
-0.740334138
-0.73997166
-0.739615541
-0.739260482
-0.738913372
-0.738571561
-0.73823558
-0.737905958
-0.737584815
-0.737266851
-0.736961607
-0.736660071
-0.736370725
-0.736086677
-0.735810579
-0.73554084
-0.73527693
-0.73501832
-0.734767659
-0.734521767
-0.734281705
-0.734043233
-0.733810589
-0.733579536
-0.733348483
-0.733122729
-0.732894855
-0.732668041
-0.732441757
-0.732214943
-0.731989719
-0.731763965
-0.731538211
-0.731313517
-0.731089883
-0.730866195
-0.73064431
-0.730423643
-0.730204673
-0.729989835
-0.729779184
-0.729570918
-0.729370284
-0.729173623
-0.728986025
-0.728804945
-0.728630754
-0.728467215
-0.728312154
-0.728167746
-0.728033354
-0.727907122
-0.727791807
-0.727687356
-0.727590695
-0.727506276
-0.72742864
-0.727359271
-0.727300713
-0.727249203
-0.727205589
-0.727169818
-0.727141201
-0.727121223
-0.727106649
-0.727100025
-0.727100714
-0.72711126
-0.727128483
-0.727155404
-0.727190963
-0.727233994
-0.727285027
-0.727344486
-0.727410675
-0.727487834
-0.727572678
-0.727665099
-0.727765628
-0.727873153
-0.727988627
-0.72811099
-0.728236532
-0.728373097
-0.728511888
-0.728657198
-0.72880717
-0.728963979
-0.729124392
-0.729287878
-0.72946032
-0.729632497
-0.729810769
-0.729993863
-0.730180242
-0.730370702
-0.730565137
-0.730762539
-0.73096487
-0.73117409
-0.731386966
-0.731605142
-0.731827346
-0.732057021
-0.732292579
-0.732534125
-0.732780123
-0.733034282
-0.733295118
-0.733562154
-0.733832741
-0.734112178
-0.734399087
-0.734689175
-0.734985252
-0.73528896
-0.735591873
-0.735899397
-0.736209464
-0.73651969
-0.736828486
-0.737137652
-0.737443798
-0.737744856
-0.73804247
-0.738332453
-0.73861703
-0.738894135
-0.739165411
-0.739426724
-0.73967818
-0.739921475
-0.740152899
-0.740375261
-0.740582839
-0.740780453
-0.740965031
-0.741135512
-0.741289618
-0.741432172
-0.741559834
-0.74166773
-0.741760575
-0.7418389
-0.741898359
-0.741940489
-0.74196635
-0.74197218
-0.741963701
-0.741935296
-0.741890304
-0.741828937
-0.741749393
-0.741653739
-0.741541286
-0.741414207
-0.741269639
-0.741108697
-0.740932386
-0.740743569
-0.740537264
-0.740317445
-0.740086763
-0.739840341
-0.73958189
-0.739311886
-0.739030117
-0.738735577
-0.738435473
-0.738126995
-0.737807018
-0.737482378
-0.737152014
-0.73681529
-0.736471731
-0.736126582
-0.735773483
-0.735419325
-0.735062093
-0.734702689
-0.73434286
-0.733983137
-0.733625058
-0.733267243
-0.732911654
-0.732558449
-0.732209803
-0.731860891
-0.731517278
-0.73117409
-0.730836731
-0.730501544
-0.73016816
-0.729836948
-0.729507591
-0.72918242
-0.728856508
-0.72853245
-0.728209664
-0.727886719
-0.727562556
-0.727243003
-0.726919899
-0.726597431
-0.726273108
-0.725952283
-0.725626053
-0.725301306
-0.724976665
-0.724649799
-0.724327119
-0.724001631
-0.72367805
-0.723355264
-0.723034916
-0.722711759
-0.722395227
-0.722082192
-0.721769528
-0.721460891
-0.721156335
-0.720855224
-0.7205592
-0.72026927
-0.719983209
-0.719706793
-0.719431755
-0.719163606
-0.718904466
-0.718651155
-0.718403673
-0.718166261
-0.717930968
-0.717704684
-0.717487939
-0.717277023
-0.717073526
-0.716877979
-0.716688261
-0.716505432
-0.716328962
-0.716164681
-0.71600093
-0.715847248
-0.715700455
-0.715559491
-0.715427006
-0.715300881
-0.715179525
-0.715064528
-0.71495748
-0.714851492
-0.714756103
-0.714662304
-0.714574334
-0.714490604
-0.714411113
-0.714333212
-0.714258491
-0.714187479
-0.714119117
-0.714049165
-0.713982922
-0.71391668
-0.713854677
-0.713791084
-0.713730141
-0.713670788
-0.713611965
-0.713554732
-0.713499618
-0.713443974
-0.71339098
-0.713339576
-0.713288172
-0.713241008
-0.713193843
-0.713146679
-0.713102164
-0.713059769
-0.713018963
-0.712980808
-0.712942122
-0.712901847
-0.712865811
-0.712825536
-0.7127842
-0.712744985
-0.712701
-0.712654895
-0.712606141
-0.712554207
-0.712498033
-0.71243868
-0.712372438
-0.712300366
-0.712224055
-0.712138735
-0.712043876
-0.711942657
-0.71183296
-0.711712134
-0.711584948
-0.711442925
-0.711291892
-0.71113397
-0.71096227
-0.710777321
-0.710581774
-0.710374038
-0.710154643
-0.70992094
-0.709676638
-0.709420678
-0.709149879
-0.708866361
-0.708571185
-0.708265941
-0.707945327
-0.707613586
-0.707272835
-0.706919366
-0.706557417
-0.706180631
-0.705795895
-0.70540056
-0.704996747
-0.704585514
-0.704167922
-0.703742381
-0.703313661
-0.702879111
-0.702439261
-0.701995703
-0.701551084
-0.701103815
-0.700653367
-0.700205039
-0.69975777
-0.699311032
-0.698865883
-0.698428153
-0.697992014
-0.697564353
-0.697144111
-0.696727049
-0.696326415
-0.695929491
-0.695541576
-0.695163729
-0.694799661
-0.694447252
-0.694106501
-0.693780058
-0.693465275
-0.693171689
-0.692890291
-0.692627441
-0.69237837
-0.692149966
-0.691937991
-0.691744563
-0.691567563
-0.691412291
-0.691272387
-0.691153151
-0.691055642
-0.690971912
-0.690913619
-0.690870164
-0.690846846
-0.690841017
-0.690853735
-0.690882352
-0.690927927
-0.69098887
-0.691063061
-0.691150501
-0.69125013
-0.691363537
-0.691484363
-0.691617377
-0.691758871
-0.691907784
-0.692062526
-0.692223098
-0.692391088
-0.692561199
-0.692736079
-0.692910959
-0.693089018
-0.693265488
-0.693442487
-0.693617367
-0.693788008
-0.693956528
-0.694119749
-0.694277141
-0.694431883
-0.694579736
-0.69472176
-0.694857954
-0.69498673
-0.695108086
-0.695223082
-0.69533172
-0.695431878
-0.695523558
-0.695607288
-0.695684129
-0.695752491
-0.695811315
-0.695863249
-0.695905644
-0.69594062
-0.695968177
-0.695987784
-0.696000503
-0.696005802
-0.695999443
-0.695987784
-0.695962347
-0.695930021
-0.695886036
-0.695831452
-0.69576468
-0.695688899
-0.695597749
-0.695494411
-0.695375705
-0.69524746
-0.695104376
-0.694944864
-0.694771044
-0.694584506
-0.694382599
-0.694164794
-0.693928971
-0.69368096
-0.69341864
-0.693138302
-0.692842066
-0.692533642
-0.692208259
-0.691868039
-0.691513509
-0.691145202
-0.690759406
-0.690361422
-0.68994807
-0.689518289
-0.68907367
-0.688614743
-0.688139388
-0.687645485
-0.687138863
-0.686614753
-0.686076335
-0.685520429
-0.684950215
-0.684365163
-0.683765802
-0.683150012
-0.682520975
-0.681876569
-0.681220505
-0.680550662
-0.67986863
-0.67917388
-0.678471181
-0.677754704
-0.677032927
-0.676298961
-0.675557047
-0.674811952
-0.6740552
-0.673294207
-0.672528445
-0.671758974
-0.670982613
-0.670207313
-0.669428832
-0.668648762
-0.667867632
-0.667089682
-0.666310141
-0.665533781
-0.66475901
-0.663987419
-0.663216358
-0.662447946
-0.661681654
-0.660919602
-0.66015861
-0.659400267
-0.658641394
-0.657885171
-0.657128949
-0.656374845
-0.655622862
-0.654867169
-0.654115186
-0.653362142
-0.652612809
-0.651862415
-0.651112021
-0.650363218
-0.649616004
-0.648871439
-0.648130055
-0.64738973
-0.646655764
-0.645923389
-0.645195783
-0.644475065
-0.643759118
-0.643051119
-0.64235001
-0.64165526
-0.640969519
-0.640291197
-0.639619765
-0.638955221
-0.638303926
-0.63766005
-0.637025183
-0.636399855
-0.635784066
-0.635178346
-0.634582165
-0.633997112
-0.633421068
-0.632855623
-0.632300247
-0.63175494
-0.631219172
-0.630694214
-0.630179537
-0.629669736
-0.629169474
-0.62867716
-0.62819216
-0.627711718
-0.627237952
-0.626766571
-0.626298529
-0.625832183
-0.625366473
-0.624901822
-0.624434999
-0.623967063
-0.623500134
-0.623029336
-0.62255308
-0.622076664
-0.621594261
-0.621106929
-0.620615146
-0.620119017
-0.619621669
-0.619116796
-0.618609115
-0.61809873
-0.617582994
-0.617066091
-0.616545002
-0.616024549
-0.61549832
-0.614971243
-0.614442258
-0.613908291
-0.613371993
-0.612834582
-0.612293408
-0.611746882
-0.611196752
-0.610644026
-0.610086689
-0.609527815
-0.608965921
-0.6084009
-0.607834448
-0.607267573
-0.606700326
-0.606132125
-0.605559791
-0.604987139
-0.604415653
-0.603844432
-0.603271197
-0.602697697
-0.602125469
-0.601554035
-0.600982867
-0.600415939
-0.599848904
-0.599287168
-0.598728613
-0.598174827
-0.59762687
-0.597086332
-0.596551094
-0.596022214
-0.595503404
-0.594992543
-0.594492811
-0.594002617
-0.593523022
-0.593055616
-0.592599339
-0.59215525
-0.591724409
-0.591305757
-0.590900884
-0.590511909
-0.590136712
-0.589775294
-0.589431893
-0.589102271
-0.588789607
-0.588490192
-0.588207734
-0.587939585
-0.587685744
-0.587447802
-0.587224697
-0.587017491
-0.586826713
-0.586649184
-0.586487022
-0.586339169
-0.586208804
-0.586088508
-0.58598782
-0.58590144
-0.585830428
-0.585775844
-0.585734509
-0.585710132
-0.585700593
-0.585704302
-0.585719671
-0.585751467
-0.585789093
-0.585841557
-0.58589826
-0.585966622
-0.586038694
-0.586118715
-0.586198206
-0.586280876
-0.586363547
-0.586443037
-0.586514579
-0.586584001
-0.586646004
-0.586698468
-0.586740333
-0.58677001
-0.586790677
-0.586795977
-0.586789617
-0.586773719
-0.586738743
-0.586692109
-0.586629576
-0.586550615
-0.586459995
-0.586355597
-0.586235301
-0.586102287
-0.585953374
-0.585793332
-0.585620572
-0.585431914
-0.585235836
-0.58502863
-0.584814535
-0.584591431
-0.584359847
-0.584120315
-0.583876013
-0.583624822
-0.583370451
-0.583113961
-0.582852701
-0.582589851
-0.582325411
-0.582061502
-0.581796532
-0.581532093
-0.581265534
-0.580996854
-0.580724996
-0.580452607
-0.580178629
-0.57990359
-0.579625902
-0.579347684
-0.579069466
-0.578789659
-0.578509321
-0.578228453
-0.577945996
-0.577662478
-0.577377371
-0.577093324
-0.576809277
-0.576525229
-0.576239592
-0.575957665
-0.575676267
-0.575395399
-0.575115062
-0.574836844
-0.574558626
-0.574286237
-0.574013848
-0.57374305
-0.573472251
-0.573203042
-0.572933303
-0.572661974
-0.572392765
-0.572119317
-0.571845338
-0.571562881
-0.571276184
-0.570983127
-0.570681592
-0.570370518
-0.570050435
-0.569721873
-0.569381122
-0.569031362
-0.568670474
-0.568299516
-0.56791743
-0.567521566
-0.567116693
-0.566696451
-0.5662672
-0.565825231
-0.565372133
-0.564910557
-0.564437851
-0.563954017
-0.563465413
-0.56296992
-0.562467538
-0.561960386
-0.561453765
-0.560943433
-0.560436282
-0.55992701
-0.559424628
-0.558924366
-0.558428343
-0.557940799
-0.557459085
-0.55698161
-0.556514733
-0.556058456
-0.555606948
-0.555166569
-0.554730429
-0.554303828
-0.553885706
-0.553469174
-0.553062181
-0.552661017
-0.552261973
-0.551870348
-0.551481373
-0.551096107
-0.550711901
-0.550329815
-0.549948259
-0.549566703
-0.549179848
-0.548798292
-0.548411436
-0.548022461
-0.547632426
-0.547238151
-0.546844407
-0.546443243
-0.546041019
-0.545632436
-0.545219614
-0.544800432
-0.544377541
-0.543944051
-0.543506321
-0.543059583
-0.542603305
-0.542137489
-0.541665313
-0.541186248
-0.540702414
-0.540210631
-0.539718847
-0.539220705
-0.538718852
-0.538217
-0.537714088
-0.537212236
-0.536709854
-0.536209061
-0.535709329
-0.535214366
-0.534721523
-0.534232919
-0.533750144
-0.53327161
-0.532798904
-0.532333618
-0.53187522
-0.531426892
-0.530987573
-0.530562032
-0.530147089
-0.529745396
-0.52936066
-0.528992352
-0.528638883
-0.528305021
-0.527986528
-0.527688172
-0.527406775
-0.527143395
-0.526901213
-0.526673339
-0.526462954
-0.526269526
-0.526090936
-0.525928775
-0.525777212
-0.525638898
-0.525508533
-0.525387707
-0.525272181
-0.525158244
-0.525049076
-0.524938849
-0.524824382
-0.524706206
-0.52458273
-0.524451835
-0.524312461
-0.524164078
-0.524001917
-0.523831806
-0.523646328
-0.523449191
-0.523237215
-0.523011461
-0.522770869
-0.522514378
-0.522242519
-0.521954763
-0.521654287
-0.521333144
-0.520996103
-0.520641574
-0.520269557
-0.519880581
-0.519470409
-0.519043278
-0.51859442
-0.518129133
-0.517642119
-0.517134968
-0.516605029
-0.516055482
-0.515484738
-0.514886966
-0.514269058
-0.513625182
-0.512954279
-0.512257409
-0.511534572
-0.510783649
-0.510004109
-0.509198601
-0.508364477
-0.507500677
-0.506614089
-0.505698884
-0.504755593
-0.503787394
-0.502793229
-0.501777336
-0.500734416
-0.499671358
-0.498587103
-0.49748165
-0.49635977
-0.495219871
-0.494063544
-0.492896088
-0.491716974
-0.490530441
-0.489331189
-0.488132467
-0.486928446
-0.485723364
-0.484517223
-0.483314792
-0.48211713
-0.480927946
-0.479745653
-0.478571838
-0.477413921
-0.476267133
-0.475134654
-0.474014892
-0.47290944
-0.471820415
-0.470749938
-0.4696943
-0.468657739
-0.467639197
-0.466637612
-0.465657755
-0.464692736
-0.463745205
-0.462816752
-0.461900487
-0.460998001
-0.460107174
-0.459222706
-0.458350426
-0.457482916
-0.456620705
-0.455761144
-0.454903173
-0.454040962
-0.453177162
-0.452307532
-0.451430483
-0.450544425
-0.449647768
-0.448738923
-0.447813649
-0.446876717
-0.445923887
-0.444954628
-0.443970532
-0.442972657
-0.441959943
-0.440935571
-0.439899541
-0.438852911
-0.437796213
-0.436731565
-0.435658439
-0.434577893
-0.433490458
-0.432398254
-0.43130234
-0.430202717
-0.429097794
-0.427987572
-0.42687364
-0.425758119
-0.424635178
-0.423508528
-0.422374988
-0.421238799
-0.42010314
-0.418963241
-0.417821753
-0.416679204
-0.415533476
-0.414387218
-0.41323725
-0.412085693
-0.410933606
-0.409781518
-0.408628901
-0.407482113
-0.406337445
-0.405200196
-0.404071956
-0.402954844
-0.401850452
-0.400763017
-0.39969095
-0.398639021
-0.39760617
-0.396595047
-0.395603001
-0.394636922
-0.393692571
-0.392768357
-0.391870111
-0.390995181
-0.390144629
-0.389317925
-0.388514007
-0.387732347
-0.386969235
-0.38622732
-0.385503424
-0.384801255
-0.384112334
-0.383439841
-0.382779537
-0.382135662
-0.381500265
-0.380874937
-0.380255968
-0.379646008
-0.379039758
-0.378435098
-0.377834147
-0.377231606
-0.376625356
-0.376015926
-0.375400667
-0.374779049
-0.374147361
-0.373502955
-0.372849011
-0.372181288
-0.371498726
-0.370799737
-0.370084849
-0.369353533
-0.36860155
-0.367834198
-0.367046179
-0.366236962
-0.365407608
-0.364554936
-0.363683186
-0.36278494
-0.361864436
-0.360923794
-0.359960895
-0.358977858
-0.357973624
-0.356947662
-0.355902622
-0.354836915
-0.353753719
-0.352653036
-0.351534335
-0.350403975
-0.349257717
-0.34810351
-0.346931815
-0.34575535
-0.344565637
-0.343369035
-0.342160244
-0.340947744
-0.339728354
-0.338502076
-0.337274207
-0.336042099
-0.334811051
-0.333575763
-0.332344185
-0.331114196
-0.329886857
-0.328666938
-0.327453378
-0.326247767
-0.325054874
-0.32387576
-0.322710424
-0.321562576
-0.320431686
-0.319323054
-0.318236149
-0.317168852
-0.316124872
-0.31510421
-0.314106334
-0.313132307
-0.312182126
-0.311256323
-0.310355956
-0.309479437
-0.308627825
-0.30780271
-0.307000913
-0.306225082
-0.305475218
-0.304751322
-0.304052332
-0.303383549
-0.302740733
-0.302129184
-0.3015489
-0.300998294
-0.300483723
-0.300003068
-0.29955421
-0.299144037
-0.298764601
-0.29842438
-0.298120195
-0.297847277
-0.297608804
-0.297405837
-0.297234137
-0.297094763
-0.296985066
-0.296902395
-0.296849401
-0.296818665
-0.296813896
-0.296828734
-0.29686318
-0.296915644
-0.296981356
-0.297056078
-0.297142988
-0.297232547
-0.297325287
-0.297416436
-0.297502286
-0.297575948
-0.29764113
-0.297686175
-0.297708962
-0.297706843
-0.297674516
-0.297608804
-0.297509705
-0.297372451
-0.297191742
-0.296963338
-0.29669254
-0.296371926
-0.295998319
-0.295572778
-0.295092124
-0.294554236
-0.293957524
-0.29330093
-0.292581273
-0.291800143
-0.29095807
-0.290050814
-0.289081026
-0.288045525
-0.286951731
-0.285796994
-0.284579194
-0.283307341
-0.281979314
-0.280597233
-0.279163218
-0.277676739
-0.276141506
-0.274564407
-0.272936435
-0.271265007
-0.269549065
-0.267786488
-0.265979926
-0.264129909
-0.262238027
-0.260303749
-0.258328667
-0.256309599
-0.254251846
-0.252152228
-0.250017104
-0.247843294
-0.245634508
-0.243392867
-0.241119958
-0.238815254
-0.236482992
-0.234126353
-0.231742158
-0.229340475
-0.226918123
-0.224479874
-0.222027317
-0.21956363
-0.217090935
-0.214614
-0.212128586
-0.209639993
-0.207155639
-0.204671285
-0.202190641
-0.199713706
-0.19724472
-0.194775204
-0.192321057
-0.189871149
-0.187436609
-0.185008429
-0.182592967
-0.180190224
-0.177799669
-0.175425012
-0.173067314
-0.170728163
-0.16840862
-0.166107625
-0.163827298
-0.161568168
-0.159331825
-0.1571188
-0.154931742
-0.152772241
-0.150638176
-0.148533259
-0.146461197
-0.144419342
-0.142411934
-0.14044109
-0.138509463
-0.13662235
-0.134776043
-0.13297796
-0.131228101
-0.129525937
-0.127880477
-0.1262843
-0.124745888
-0.123263648
-0.121839702
-0.12047246
-0.1191651
-0.117911265
-0.116718902
-0.115583243
-0.114507466
-0.113491573
-0.112535564
-0.111643676
-0.110816971
-0.110054919
-0.109360169
-0.108733251
-0.108175226
-0.107685562
-0.10726532
-0.106913441
-0.106627804
-0.106412649
-0.106261616
-0.106177886
-0.106156158
-0.106197493
-0.106294472
-0.106446035
-0.106652181
-0.106907612
-0.107210207
-0.107556257
-0.107941523
-0.108361764
-0.108815922
-0.109294987
-0.109797899
-0.110317769
-0.110850358
-0.111387716
-0.111924544
-0.112455013
-0.112977003
-0.113480975
-0.11395898
-0.114411548
-0.114831789
-0.115214935
-0.115555156
-0.115847682
-0.116089864
-0.116276933
-0.116403588
-0.116465591
-0.116464531
-0.11639087
-0.116245136
-0.116023092
-0.115723676
-0.11534795
-0.114889553
-0.114354844
-0.113739055
-0.113039536
-0.112261585
-0.111401494
-0.110461382
-0.10943913
-0.108336857
-0.107152973
-0.105891189
-0.104553623
-0.103140805
-0.101649557
-0.100088887
-0.098457734
-0.09675875
-0.094992993
-0.093164174
-0.091273352
-0.089324236
-0.087318947
-0.085258014
-0.083149387
-0.080988296
-0.07878481
-0.076535749
-0.074250122
-0.071927399
-0.06957182
-0.067183915
-0.064771103
-0.062337093
-0.059877117
-0.057406011
-0.054917418
-0.052424055
-0.049929102
-0.04743203
-0.044941846
-0.042464382
-0.040003875
-0.037557147
-0.035135325
-0.032738941
-0.030375414
-0.028044742
-0.025744807
-0.023484617
-0.021259403
-0.019071285
-0.016922912
-0.014810576
-0.012728975
-0.01069242
-0.008678122
-0.00669933
-0.004750744
-0.002826006
-0.000918225
0.000964648
0.002834803
0.004697008
0.006546495
0.008391743
0.010233811
0.012084358
0.013930135
0.015788631
0.017651897
0.01952894
0.021419763
0.023317474
0.025231084
0.027154762
0.02908374
0.031020667
0.032966073
0.034914129
0.036862185
0.038806531
0.040749817
0.042685154
0.044616252
0.046533571
0.048431283
0.050312036
0.052172122
0.054002001
0.055797964
0.057558422
0.059282843
0.060965399
0.062597611
0.064188488
0.065720542
0.067206491
0.068627787
0.06999662
0.071302389
0.072555695
0.073749647
0.074893256
0.075980691
0.077015661
0.078005587
0.078949409
0.079849245
0.080711986
0.081538691
0.082329889
0.083094591
0.083824317
0.084530726
0.085212758
0.085874121
0.086510578
0.087124777
0.087714599
0.088291173
0.088843369
0.089369069
0.089871451
0.090348396
0.090796725
0.091224385
0.09161654
0.091980078
0.092319769
0.092628194
0.092911181
0.093165022
0.093405614
0.09361918
0.093813667
0.093988017
0.09413481
0.094270475
0.094389711
0.094489339
0.094581549
0.09465839
0.094730992
0.094789815
0.094845458
0.094904282
0.094963105
0.095022458
0.09508923
0.095161832
0.095236553
0.095322403
0.095402424
0.095491454
0.095588963
0.095671103
0.095765962
0.095866121
0.09595939
0.096061138
0.096169776
0.096282653
0.096416198
0.096555571
0.096708194
0.096871415
0.097063253
0.097285827
0.097517941
0.09778503
0.098073847
0.09839446
0.098753228
0.099143793
0.099561915
0.100019783
0.100521105
0.101065352
0.101646165
0.102274143
0.102945576
0.103661523
0.104426755
0.105237562
0.106093413
0.10699484
0.107951379
0.108953494
0.110016022
0.111122004
0.11229158
0.113514149
0.114791832
0.116126218
0.117511479
0.118964571
0.120458469
0.122009071
0.123605247
0.125259716
0.126950752
0.128693721
0.130475376
0.132290947
0.134154212
0.136042915
0.137965004
0.13990405
0.141879133
0.143877533
0.145891301
0.147932626
0.149987729
0.152058731
0.154144571
0.156247369
0.158364475
0.16049377
0.162639493
0.164803233
0.166970684
0.169161982
0.171368118
0.173577963
0.175798937
0.17803263
0.180273742
0.182526513
0.184798361
0.187072859
0.189364315
0.19167326
0.193981144
0.196318705
0.198668984
0.201034102
0.203417767
0.205831639
0.2082577
0.210712907
0.213188252
0.215694864
0.218233801
0.220807715
0.223414485
0.226055701
0.228732423
0.23144624
0.234192914
0.236965025
0.239769992
0.242599866
0.245454117
0.248326916
0.251216674
0.254126039
0.257035404
0.259959607
0.262881161
0.265798475
0.268720028
0.271626214
0.27452763
0.277416857
0.280286477
0.283133839
0.285966363
0.28876868
0.29154821
0.294280575
0.296992273
0.299674294
0.302299612
0.304889954
0.307434721
0.309928084
0.312367923
0.314760067
0.317091269
0.319365767
0.321560244
0.323704377
0.32576425
0.327752051
0.329658242
0.33149766
0.333240629
0.334914177
0.336499224
0.337996832
0.33940064
0.340708
0.34191997
0.343039731
0.344059334
0.344979308
0.345802303
0.346530439
0.347170075
0.347722802
0.348197097
0.348572824
0.34887065
0.349095874
0.349240017
0.349332227
0.349344415
0.349295131
0.349178014
0.349031221
0.348819776
0.348583423
0.348297786
0.347989891
0.34764808
0.34730309
0.346922594
0.346538918
0.346146233
0.345753019
0.345351325
0.344941682
0.344538399
0.344145714
0.343756739
0.343369883
0.343001575
0.342640157
0.342299936
0.341977733
0.341665599
0.341385791
0.341129831
0.340901427
0.340693161
0.34052676
0.340389506
0.34027292
0.340210917
0.34017859
0.34018442
0.340233174
0.340311075
0.340433491
0.340593003
0.34079173
0.341042391
0.341332268
0.34166348
0.342039736
0.342456268
0.342917315
0.343418107
0.343974543
0.344567545
0.345210891
0.345897692
0.346631128
0.347405368
0.348240022
0.349114422
0.350028036
0.350990406
0.351999409
0.353046569
0.354132414
0.355255884
0.356414331
0.357611463
0.358841452
0.360100587
0.361387808
0.362699407
0.364040683
0.365407396
0.366795306
0.368210243
0.369647967
0.371093111
0.372553093
0.374021554
0.375492664
0.376966955
0.378452904
0.379910766
0.381393005
0.382845038
0.384291771
0.385715187
0.387141783
0.388536583
0.389909124
0.391266828
0.392605454
0.393906984
0.395194736
0.396450691
0.39767644
0.398869333
0.400046857
0.401190466
0.402311816
0.40340879
0.404485096
0.405540205
0.406578355
0.407597958
0.408600072
0.409612256
0.410591053
0.411564551
0.412537519
0.413489819
0.41443841
0.415387001
0.416331352
0.417257686
0.418206276
0.419151158
0.420094449
0.421045689
0.422013888
0.422971488
0.423944986
0.424922193
0.42590682
0.426903105
0.427906279
0.428914753
0.429921637
0.430957668
0.43198681
0.43302814
0.434072649
0.4351108
0.43614842
0.43719399
0.438231081
0.439264462
0.440295723
0.441303667
0.44231585
0.443294648
0.444280864
0.445238464
0.446166917
0.447089011
0.447985138
0.448841519
0.449665574
0.450472671
0.451238963
0.4519618
0.452658669
0.453322153
0.45395278
0.454555851
0.455123946
0.455661834
0.456150437
0.456617314
0.457063522
0.457462566
0.457835643
0.458185403
0.458507606
0.458801722
0.459085769
0.45933908
0.45959822
0.459838813
0.460082055
0.460322117
0.460564299
0.460829269
0.461095828
0.461390474
0.461703668
0.462052898
0.462429154
0.462839327
0.463281826
0.46377255
0.464300899
0.464870053
0.465491672
0.466163634
0.466883822
0.467667601
0.468496426
0.469393083
0.470338494
0.471348557
0.472428043
0.473567942
0.474769844
0.476033748
0.477380323
0.478784131
0.48027538
0.4818387
0.483466672
0.485161417
0.486936183
0.488788319
0.490710408
0.492704039
0.494771331
0.496908574
0.499125839
0.501411996
0.503750617
0.506184096
0.508665271
0.511229646
0.513843835
0.516516847
0.519249212
0.522014964
0.52482788
0.527676302
0.530549631
0.533438328
0.536353523
0.539253349
0.542166423
0.545076318
0.547953357
0.550799659
0.553621584
0.556427081
0.559171105
0.561870085
0.564531438
0.567114891
0.569654358
0.572117515
0.574523968
0.576855169
0.579125428
0.581313016
0.583432242
0.585477806
0.587438581
0.589341592
0.591148154
0.592883174
0.594527575
0.596085065
0.597554056
0.598946736
0.600231838
0.60142526
0.602532833
0.603543956
0.604475059
0.605302824
0.60603414
0.606674306
0.60724505
0.607711397
0.608092953
0.608397138
0.608627131
0.608770215
0.608853945
0.608856065
0.608814729
0.608694433
0.608523263
0.608314997
0.608060626
0.60776757
0.607463915
0.607112565
0.606762806
0.606415166
0.606056927
0.605711937
0.605376485
0.605062232
0.604775535
0.604518514
0.60429806
0.604138548
0.604007653
0.603931342
0.603905375
0.603934521
0.603995464
0.604132719
0.604327206
0.604565149
0.604865624
0.605228102
0.605641985
0.60611893
0.606666357
0.607263068
0.607910654
0.608626071
0.609389713
0.610219598
0.611095057
0.612015561
0.6129827
0.613984284
0.615028264
0.616080723
0.617174517
0.618285799
0.619394961
0.620521082
0.62165992
0.622785511
0.623905272
0.625025033
0.626124126
0.627204142
0.628234343
0.629262955
0.630266659
0.631231678
0.63217338
0.633079046
0.633946556
0.634818835
0.635654549
0.636469595
0.637257085
0.638042454
0.638803447
0.63955384
0.640301054
0.641053567
0.641792832
0.642535807
0.643285141
0.644038184
0.644797586
0.645572357
0.646361436
0.647166944
0.64797828
0.648795976
0.649635399
0.650474823
0.651330674
0.652198184
0.653073114
0.653953342
0.65484364
0.655726518
0.656621585
0.657512942
0.658419668
0.659317914
0.660233119
0.661138255
0.66204922
0.662973434
0.663909836
0.664821331
0.665739185
0.666658099
0.667564825
0.668463601
0.669360788
0.670222999
0.671089449
0.671928342
0.672770416
0.673576983
0.674386199
0.675168919
0.675907654
0.676635261
0.677351738
0.67803165
0.678688244
0.679320461
0.679904454
0.68045824
0.680992949
0.681491091
0.681946839
0.682366021
0.682754996
0.683118004
0.683437027
0.683724784
0.683983394
0.684224517
0.684415825
0.684565797
0.684684504
0.684763465
0.684822288
0.6848048
0.684767704
0.684671785
0.684530291
0.684344813
0.684115879
0.683843491
0.683523937
0.683138142
0.68271843
0.682247844
0.681729034
0.68115935
0.680532962
0.679870008
0.67915883
0.678398897
0.677589681
0.676754497
0.675865259
0.674958004
0.673996694
0.673022137
0.672018962
0.670970743
0.669902916
0.66882396
0.667720627
0.666588677
0.665457258
0.66430411
0.663143544
0.661968669
0.660797504
0.659602492
0.658417548
0.657237904
0.656040772
0.654851059
0.653671415
0.652506079
0.651334914
0.650169578
0.649016431
0.647871232
0.646736103
0.645608923
0.644494991
0.643383709
0.642281436
0.641195591
0.640100207
0.639021251
0.637950775
0.636893546
0.63582254
0.634769021
0.633713383
0.632652445
0.631581438
0.630506192
0.629424586
0.628340331
0.627241768
0.626132076
0.624992707
0.623870826
0.622726158
0.621559762
0.620404495
0.61923386
0.618084422
0.616936044
0.615813634
0.61471507
0.613635584
0.612608563
0.611609098
0.610668986
0.609776569
0.608939795
0.608188872
0.607501011
0.60690059
0.60638072
0.605954649
0.605611778
0.605359527
0.605219093
0.605171929
0.605215914
0.605368536
0.605608599
0.605953059
0.606383369
0.606908009
0.607517439
0.608221198
0.608997028
0.609862419
0.610770204
0.611776558
0.612842796
0.613957787
0.615144851
0.616374839
0.617648282
0.618964651
0.620301687
0.621681648
0.623066379
0.624486085
0.625911091
0.627339277
0.628760573
0.630170741
0.631581438
0.63295133
0.634300025
0.635595726
0.6368644
0.638099158
0.639255484
0.640364117
0.641427174
0.642396433
0.643323296
0.644164309
0.644947029
0.645639659
0.646275056
0.646844211
0.647340764
0.647770544
0.648148391
0.648465294
0.648740862
0.648945419
0.649128248
0.649261262
0.649348702
0.649399576
0.649409645
0.649391627
0.649307367
0.649202969
0.649064125
0.648883416
0.648649713
0.648378914
0.648079498
0.647736098
0.647352952
0.646931651
0.646494981
0.645996838
0.645451001
0.644899335
0.644284605
0.643651328
0.642967707
0.642270837
0.641545351
0.640789658
0.640006408
0.639225808
0.638431429
0.637630692
0.636834193
0.636043524
0.635275113
0.634512531
0.633773796
0.633073216
0.632406023
0.631758968
0.631164906
0.63060741
0.630118806
0.629677367
0.62930747
0.628989507
0.628726657
0.628556016
0.62843625
0.628400214
0.628416642
0.628514681
0.628688501
0.628922734
0.629240698
0.629647691
0.630099729
0.630667823
0.631257645
0.631968823
0.632736705
0.633570299
0.634499812
0.63547543
0.636562865
0.637678386
0.638898306
0.64016433
0.641524153
0.642923192
0.644377875
0.645910458
0.647494976
0.649116589
0.65076258
0.652459444
0.654181216
0.655908287
0.657652846
0.659413833
0.661154683
0.662897122
0.664600876
0.666291911
0.66795221
0.669577003
0.671144033
0.672683506
0.674154616
0.675579092
0.676935736
0.678213419
0.679447647
0.680585956
0.681661202
0.682679745
0.683604488
0.684474118
0.685256838
0.685987094
0.686667005
0.687266366
0.687792596
0.688258942
0.688674944
0.689019935
0.689303982
0.689528146
0.689718394
0.689854059
0.689919771
0.689981244
0.689969585
0.689919771
0.6898371
0.689724223
0.68957637
0.689377643
0.689157719
0.688897519
0.688615061
0.688302397
0.687983374
0.687630964
0.687264247
0.68689011
0.686502194
0.68610739
0.685694038
0.685283335
0.68488959
0.684501145
0.684097861
0.683725844
0.683350647
0.683003537
0.682644769
0.682329455
0.682013611
0.681729034
0.681445517
0.681187966
0.680960093
0.680729569
0.680509644
0.680318336
0.680152466
0.680001963
0.679847751
0.679725335
0.679609278
0.679517069
0.679437578
0.679370276
0.679327351
0.679293964
0.679269057
0.679258988
0.67924733
0.679264288
0.679276476
0.679282306
0.679304563
0.679319931
0.679354377
0.679361797
0.679393593
0.679406841
0.67942327
0.679424329
0.679445527
0.679448707
0.679432278
0.679430159
0.679424859
0.67941585
0.679378225
0.679358617
0.679326291
0.679282836
0.6792415
0.679180557
0.679125444
0.679046483
0.678952154
0.678844046
0.67872852
0.678583316
0.678430694
0.678260583
0.678062386
0.677850411
0.677633136
0.677392013
0.677180568
0.676932556
0.676685605
0.676445542
0.676194351
0.675929382
0.67568561
0.67542806
0.675169979
0.674919848
0.674665477
0.674405807
0.674148787
0.673891236
0.673644815
0.673393094
0.673143493
0.672899721
0.67264694
0.672418006
0.672160986
0.671903965
0.671651714
0.671396814
0.671133434
0.670868994
0.670614094
0.670354424
0.67012655
0.669906095
0.669709488
0.669529309
0.669399474
0.669303555
0.66925374
0.669273348
0.66934807
0.669477905
0.669699949
0.669972338
0.670315208
0.670741279
0.671221934
0.671802217
0.672432844
0.673154621
0.673933632
0.674805381
0.675733304
0.67672535
0.677806956
0.678935726
0.680130738
0.681396762
0.68272108
0.684094152
0.685513858
0.686989738
0.688513843
0.690078223
0.691671749
0.693307141
0.69496479
0.696651056
0.698357459
0.700094069
0.701814251
0.70356093
0.705292771
0.70703415
0.70877553
0.710486703
0.712200526
0.713892621
0.715568818
0.717215868
0.718844371
0.720428358
0.721988499
0.723485046
0.724960396
0.726372154
0.727734097
0.729033507
0.730287343
0.731464867
0.732566081
0.733594692
0.734552292
0.735416622
0.736185034
0.736899922
0.737509351
0.738019153
0.738440984
0.738764247
0.7390006
0.739112417
0.739130435
0.739046174
0.738861226
0.738573999
0.738186084
0.737682112
0.737073742
0.73639012
0.73561111
0.734719753
0.733734066
0.732632853
0.731452149
0.730177646
0.728812523
0.727380098
0.725859173
0.724257167
0.722601108
0.720879866
0.719100861
0.7172837
0.715410896
0.713497816
0.71155029
0.709567789
0.707540242
0.705488848
0.70338923
0.701272124
0.69913011
0.696939873
0.694692401
0.692430622
0.690117968
0.687762919
0.685375014
0.682945774
0.680467779
0.67794209
0.675401563
0.672800092
0.670167885
0.667514481
0.66482451
0.662119702
0.659387866
0.656630594
0.65388657
0.65110863
0.648333339
0.645564938
0.642791237
0.640042444
0.63729895
0.634589372
0.631881913
0.629230099
0.626601072
0.62400808
0.621461723
0.618963591
0.616515273
0.614141146
0.611807295
0.609559294
0.607388134
0.605298584
0.603302304
0.601417841
0.59960068
0.597906995
0.596330427
0.594852427
0.593502673
0.592264735
0.591122187
0.590114243
0.589228715
0.588431156
0.587767143
0.58718368
0.586703555
0.586332068
0.5860565
0.585852473
0.585748605
0.58570886
0.585721578
0.585813258
0.585947332
0.586119563
0.586325709
0.58657637
0.58683816
0.587120087
0.587423742
0.587720508
0.588020454
0.588308211
0.588599147
0.588868886
0.589128556
0.589362789
0.589582184
0.589771902
0.589919755
0.590057539
0.590150279
0.590232949
0.590252027
0.590247257
0.590210162
0.59013703
0.590033162
0.589907037
0.589734806
0.58953184
0.589290717
0.589028398
0.588726332
0.5884036
0.588048541
0.587662215
0.587250982
0.586822792
0.586354856
0.585849294
0.585309816
0.584758679
0.584169387
0.583542999
0.582897004
0.582210733
0.581488426
0.580733263
0.579947893
0.579125958
0.578274876
0.577393587
0.576470964
0.575526612
0.574531917
0.573540931
0.572501721
0.571438133
0.570343279
0.569215569
0.568064012
0.566892316
0.565704193
0.564473675
0.563223019
0.561963884
0.560667653
0.559345455
0.558010009
0.556642767
0.555280823
0.553877545
0.552470557
0.55105297
0.549625845
0.54818547
0.546750926
0.545334929
0.543903563
0.542501345
0.541093827
0.539720755
0.538361991
0.537024955
0.535701698
0.534417656
0.533179718
0.53194549
0.530726631
0.529571894
0.528443124
0.527339791
0.526265604
0.525220565
0.52421421
0.523229584
0.522277283
0.5213483
0.520441045
0.519579894
0.518733052
0.517916416
0.517122567
0.516366344
0.515629729
0.514943458
0.514286863
0.513667365
0.513082842
0.512539655
0.512043632
0.511595833
0.511196259
0.510850739
0.510561922
0.51032186
0.510137971
0.509998597
0.509927585
0.509879361
0.509910097
0.509953552
0.510024034
0.51014751
0.510293773
0.510456465
0.510627635
0.510817883
0.5110182
0.511212158
0.511403995
0.511603252
0.51179562
0.511984809
0.512153329
0.512314431
0.512479772
0.512629214
0.512782897
0.51292598
0.513080722
0.513242354
0.513424123
0.513609072
0.5137972
0.514011295
0.51423334
0.514472872
0.514731482
0.515002811
0.515282619
0.515573025
0.51588198
0.516182455
0.516496179
0.516817322
0.517118857
0.517430462
0.517723518
0.518009685
0.518269885
0.518518956
0.518751069
0.518949797
0.519129446
0.51926829
0.519398125
0.519489804
0.519565056
0.519599502
0.51961699
0.519598972
0.519566116
0.519513122
0.519427272
0.519332942
0.519215826
0.519070093
0.518925949
0.518739411
0.518556582
0.518346196
0.518105074
0.517827386
0.51753433
0.517205767
0.516848059
0.516439476
0.516000156
0.515506783
0.514981614
0.514412989
0.513779182
0.51310086
0.512367425
0.511582055
0.510737862
0.509845975
0.508895794
0.507894739
0.50684652
0.505737888
0.50459428
0.503426824
0.502209554
0.500953599
0.499665847
0.498354248
0.497010323
0.495653679
0.494293326
0.492892697
0.491491538
0.490077131
0.488648416
0.487186844
0.485724742
0.484240383
0.482737476
0.481195354
0.479638393
0.478038507
0.476403645
0.474718969
0.472998258
0.471215013
0.469392553
0.467514449
0.465578582
0.463576472
0.461541507
0.45942811
0.457271788
0.455063533
0.452804933
0.450500758
0.448174856
0.445807088
0.443425013
0.441022799
0.438609987
0.436192405
0.433774824
0.431368901
0.428980466
0.426607399
0.424258709
0.421939696
0.41965248
0.417403949
0.415194103
0.413037251
0.410924915
0.408862392
0.406849154
0.404906928
0.403013456
0.401183576
0.399406161
0.397705587
0.396052177
0.39446819
0.392954154
0.391497882
0.390114211
0.388788304
0.387528639
0.386334686
0.385214925
0.384157697
0.383160881
0.382233488
0.381378697
0.38057107
0.379843463
0.379183689
0.378586448
0.378043261
0.377564196
0.377135475
0.376766638
0.376444435
0.376165687
0.375918735
0.375720538
0.375547248
0.375399395
0.375274859
0.375174701
0.37509733
0.375028438
0.374957426
0.374903902
0.374847729
0.374769298
0.374688747
0.374582759
0.374464053
0.374299242
0.374105814
0.373857803
0.373564746
0.373221876
0.372830251
0.372371324
0.371857283
0.371256332
0.370596558
0.369854644
0.369024229
0.368091007
0.367066105
0.365936275
0.364692508
0.363336924
0.361852565
0.3602442
0.358502821
0.356637435
0.354640095
0.352507091
0.350244781
0.347855287
0.345334897
0.34270481
0.339940118
0.337078447
0.334094361
0.331024954
0.32784691
0.324575067
0.321218434
0.317787609
0.314268814
0.310694375
0.307044156
0.303336703
0.299578905
0.295760695
0.291905389
0.288003978
0.284066001
0.280094109
0.276097839
0.272065533
0.268024218
0.263960646
0.259884356
0.255799586
0.251710047
0.247626867
0.243541567
0.239480645
0.235432441
0.231414974
0.227430892
0.223485497
0.219586736
0.215734079
0.211944485
0.208205766
0.204537528
0.200927054
0.197384942
0.193913312
0.190509514
0.187182027
0.183926612
0.180746448
0.177634116
0.174604985
0.171646865
0.168768237
0.165967509
0.163249982
0.160614066
0.15805658
0.155588124
0.153202339
0.150899224
0.148683549
0.146548425
0.144500211
0.142537317
0.140656564
0.13886113
0.137150487
0.135514566
0.133967144
0.132490204
0.131094875
0.129767377
0.128519901
0.127331248
0.126203008
0.125129881
0.124108689
0.123122473
0.122173882
0.121247018
0.120338173
0.119436217
0.11853903
0.117634954
0.116727169
0.115796066
0.114854365
0.113887756
0.11289836
0.111881407
0.110837957
0.109760591
0.108653549
0.107516829
0.106340895
0.105134754
0.103887807
0.102604295
0.101290576
0.099937642
0.098553971
0.097134265
0.095682232
0.094199993
0.092679598
0.091135886
0.089572036
0.087981159
0.086373854
0.084751711
0.083121088
0.081479337
0.079840766
0.078199545
0.076561504
0.074930351
0.073307148
0.071697724
0.070099958
0.068523389
0.066957419
0.065415297
0.063889073
0.062387226
0.060898627
0.059440235
0.057992442
0.056571145
0.055173696
0.053787376
0.052418014
0.051065079
0.049720624
0.048392067
0.047073579
0.045769399
0.044475288
0.043193896
0.041928931
0.040679335
0.039441398
0.038223598
0.037024876
0.035849471
0.034701093
0.033581332
0.032497077
0.031446208
0.030439324
0.029473775
0.028551152
0.027675692
0.026846338
0.026065208
0.025330712
0.024644441
0.024003215
0.023409684
0.022862787
0.022357755
0.021893528
0.021471697
0.021089081
0.020736141
0.020413409
0.020117703
0.019846374
0.019593593
0.019354061
0.019130426
0.018911032
0.018698526
0.018484961
0.018272455
0.01805465
0.017828366
0.017594663
0.017350361
0.017090161
0.016810353
0.016508818
0.016181316
0.015823607
0.015429332
0.015002732
0.014537975
0.014034003
0.013490286
0.012902583
0.012271426
0.011598933
0.010882986
0.010121464
0.009305358
0.008452686
0.00754596
0.006598429
0.005592605
0.004550215
0.003452182
0.002301684
0.001111971
-0.000130736
-0.001423257
-0.002765063
-0.004151913
-0.005590697
-0.007077706
-0.00860923
-0.01017414
-0.011788334
-0.013426905
-0.015093033
-0.016780889
-0.018490472
-0.020218073
-0.021950444
-0.023690233
-0.025433203
-0.027179352
-0.028924971
-0.03066741
-0.032409849
-0.034158118
-0.035896848
-0.037635048
-0.039381727
-0.041120456
-0.042865015
-0.044612754
-0.046355724
-0.048107702
-0.04986286
-0.051620667
-0.053381125
-0.055139462
-0.056906279
-0.058677865
-0.060445211
-0.062217857
-0.063985734
-0.0657552
-0.067523606
-0.069296252
-0.071064659
-0.072838364
-0.07461048
-0.076384186
-0.078164251
-0.079952795
-0.081742929
-0.083542602
-0.085353933
-0.087176393
-0.089014222
-0.090870068
-0.092743402
-0.094637934
-0.096552604
-0.098491121
-0.100453485
-0.102440226
-0.104453994
-0.10648631
-0.108547773
-0.110631493
-0.1127433
-0.114882133
-0.117050114
-0.119246711
-0.121476694
-0.123740593
-0.126036289
-0.128367491
-0.130732078
-0.133127403
-0.135553463
-0.13801026
-0.140488785
-0.142991157
-0.145513666
-0.148051544
-0.150601611
-0.153152737
-0.155708103
-0.158258169
-0.160797107
-0.163318556
-0.165823048
-0.168303692
-0.17075519
-0.173174362
-0.175561737
-0.177911486
-0.18021937
-0.182487509
-0.184708483
-0.186880173
-0.189008938
-0.191087889
-0.193112786
-0.195086279
-0.197004128
-0.198866333
-0.200671306
-0.202420104
-0.20410902
-0.205741232
-0.207314091
-0.208826537
-0.210279629
-0.211671249
-0.213002456
-0.21427113
-0.21547992
-0.216627768
-0.217714143
-0.218735336
-0.219697705
-0.220594891
-0.221429015
-0.222196897
-0.222901186
-0.223539232
-0.224114746
-0.224625607
-0.225070756
-0.225453902
-0.225772925
-0.226031536
-0.226225493
-0.226362747
-0.226439589
-0.226458136
-0.22642369
-0.226335191
-0.226191047
-0.226000799
-0.225759147
-0.22546821
-0.22512746
-0.224744314
-0.224316123
-0.223846067
-0.223333616
-0.22278142
-0.222189478
-0.22156362
-0.220902786
-0.220213335
-0.219491559
-0.218746994
-0.217979643
-0.217194273
-0.216396715
-0.215586438
-0.214774042
-0.213953696
-0.21313706
-0.212324134
-0.211518097
-0.210723188
-0.209940998
-0.209173647
-0.208423253
-0.207696707
-0.206990298
-0.206313036
-0.205662271
-0.205042772
-0.2044556
-0.203901284
-0.203387773
-0.202908708
-0.202471508
-0.202077234
-0.201726944
-0.201424879
-0.201167328
-0.200965952
-0.200811209
-0.200713171
-0.200668126
-0.200680844
-0.200749736
-0.200878512
-0.2010624
-0.201304583
-0.201607178
-0.201963297
-0.202377179
-0.202842466
-0.203361806
-0.20393149
-0.204552049
-0.205219772
-0.20593254
-0.206688763
-0.207488971
-0.208328394
-0.209209682
-0.210128597
-0.211086196
-0.212082482
-0.213117452
-0.214186339
-0.215293382
-0.21643858
-0.217616634
-0.218831784
-0.220080851
-0.221363303
-0.222681791
-0.224030486
-0.225411507
-0.226824854
-0.228264168
-0.229735279
-0.231237126
-0.232766
-0.234325611
-0.235917017
-0.237538631
-0.23918939
-0.240874596
-0.242590539
-0.244345167
-0.246131591
-0.247954581
-0.249817317
-0.251716618
-0.253655135
-0.255633397
-0.257651405
-0.259707038
-0.261803477
-0.26394178
-0.26612036
-0.268341864
-0.270599934
-0.272897219
-0.275231071
-0.277601488
-0.280001051
-0.282427112
-0.284882319
-0.287360844
-0.289853677
-0.292365588
-0.294888097
-0.297416966
-0.299951664
-0.302484773
-0.305017881
-0.30754728
-0.31006608
-0.312574811
-0.315069234
-0.317548288
-0.320006675
-0.322443864
-0.324857207
-0.327240872
-0.329596981
-0.331923943
-0.334217519
-0.336477179
-0.338696563
-0.340879912
-0.343026165
-0.345127373
-0.347188305
-0.349206313
-0.351178746
-0.353106664
-0.354987947
-0.356821536
-0.35860902
-0.36035358
-0.362048854
-0.363698554
-0.36530215
-0.36686441
-0.368379505
-0.369853266
-0.371287281
-0.37268049
-0.374034484
-0.375356152
-0.376640194
-0.37789456
-0.379115539
-0.380307902
-0.381472178
-0.382611017
-0.383727068
-0.384819802
-0.385892929
-0.386949097
-0.387990957
-0.389021159
-0.390043941
-0.391060894
-0.392074667
-0.39308791
-0.394107513
-0.395133475
-0.396166326
-0.397211366
-0.398270714
-0.399349669
-0.400447173
-0.401569584
-0.402713722
-0.403883297
-0.40507884
-0.406299819
-0.407554715
-0.408828688
-0.410136048
-0.411466194
-0.412824958
-0.414203329
-0.415605018
-0.417027374
-0.418469868
-0.41992773
-0.42140573
-0.422898038
-0.424403065
-0.42592081
-0.427449684
-0.428989157
-0.430535519
-0.4320893
-0.43364838
-0.43521594
-0.436784559
-0.438357418
-0.439931337
-0.441505256
-0.443080234
-0.444651503
-0.446218533
-0.447778673
-0.449332984
-0.450878816
-0.452416699
-0.453940804
-0.45545272
-0.456950327
-0.458431507
-0.459896258
-0.461340872
-0.462764818
-0.464167566
-0.465548587
-0.466905231
-0.468234318
-0.469544327
-0.470828369
-0.472088564
-0.473320672
-0.474528403
-0.475710167
-0.476865964
-0.477996324
-0.479101777
-0.480179673
-0.481232131
-0.482254384
-0.483246959
-0.484209329
-0.485139902
-0.486038678
-0.486898769
-0.487721764
-0.488505014
-0.489249578
-0.489951218
-0.490607812
-0.491217772
-0.491784276
-0.492301497
-0.492772613
-0.493193384
-0.493565931
-0.493889194
-0.494163702
-0.494389457
-0.494567516
-0.494696291
-0.494776312
-0.494810758
-0.49479539
-0.494738156
-0.494635348
-0.494490145
-0.494305196
-0.494081562
-0.493820302
-0.493524596
-0.493194974
-0.492837265
-0.49244882
-0.492034938
-0.491597738
-0.491136691
-0.490659746
-0.490163193
-0.489653392
-0.489131402
-0.488600403
-0.488062515
-0.487524097
-0.486986209
-0.48645521
-0.48593057
-0.485421829
-0.484925806
-0.48445575
-0.484007952
-0.48359089
-0.483204034
-0.482852155
-0.482539491
-0.482270812
-0.482040288
-0.48185534
-0.481721265
-0.481633295
-0.481600969
-0.481621107
-0.481698478
-0.481835202
-0.482033399
-0.482294129
-0.482623221
-0.483016436
-0.483479073
-0.484011661
-0.484612082
-0.485277156
-0.486011121
-0.486811329
-0.48767513
-0.488602523
-0.48958609
-0.490629539
-0.491727573
-0.492878071
-0.494078382
-0.495328508
-0.496628979
-0.497974494
-0.499360814
-0.50079006
-0.50226329
-0.503773086
-0.505320508
-0.506903436
-0.508521339
-0.510172629
-0.511857835
-0.513573248
-0.515317277
-0.517093632
-0.518891185
-0.520718945
-0.522575321
-0.524451835
-0.526356436
-0.528285944
-0.530236649
-0.532207492
-0.534199003
-0.536207472
-0.538233428
-0.540275813
-0.542331446
-0.544399798
-0.546477689
-0.548564059
-0.550657848
-0.552756406
-0.554859204
-0.556963062
-0.559068509
-0.561171307
-0.563269336
-0.565363125
-0.567446845
-0.569520496
-0.571578779
-0.573623283
-0.57564871
-0.577653999
-0.579636501
-0.581597275
-0.583531023
-0.585440393
-0.587321146
-0.589172753
-0.590995743
-0.592788527
-0.594544215
-0.596270226
-0.597960201
-0.599615201
-0.601234164
-0.602811793
-0.604353915
-0.605854702
-0.607316274
-0.608735981
-0.610112762
-0.611446088
-0.612740729
-0.613991385
-0.615199646
-0.616366572
-0.617492162
-0.618578537
-0.619620397
-0.620625162
-0.62159283
-0.622521283
-0.623412111
-0.624270612
-0.625092017
-0.625877917
-0.62663202
-0.627354327
-0.628038478
-0.628699842
-0.62932305
-0.629918172
-0.630484676
-0.631020445
-0.631529716
-0.632008251
-0.632460819
-0.63288795
-0.633286464
-0.633657421
-0.634002941
-0.634327794
-0.63462085
-0.634894299
-0.63514019
-0.635363825
-0.635566261
-0.6357475
-0.635906482
-0.636047446
-0.636170392
-0.63627532
-0.636363819
-0.636438011
-0.636496304
-0.636542939
-0.636576855
-0.636601762
-0.636613421
-0.63661713
-0.636612361
-0.636598052
-0.636577385
-0.636548768
-0.636513262
-0.636472457
-0.636427942
-0.636376538
-0.636320364
-0.636261541
-0.636203778
-0.636141245
-0.636077652
-0.63601247
-0.635945168
-0.635881045
-0.635814803
-0.63574962
-0.635684968
-0.635626144
-0.635565731
-0.635510618
-0.635458154
-0.635408869
-0.635361705
-0.63531825
-0.635277445
-0.635242469
-0.635210672
-0.635185765
-0.635166687
-0.635153439
-0.635151319
-0.635158738
-0.635180996
-0.635213852
-0.635264726
-0.635334148
-0.635420528
-0.635530755
-0.63566059
-0.635815863
-0.635991802
-0.636194769
-0.636420311
-0.636671661
-0.63694511
-0.63724018
-0.637557931
-0.637894124
-0.638248282
-0.638617173
-0.638998305
-0.639391043
-0.639791783
-0.640198352
-0.640609638
-0.641022513
-0.641438515
-0.641849642
-0.642258066
-0.642660554
-0.643054829
-0.643440095
-0.643815291
-0.64417936
-0.644529649
-0.64486722
-0.645188893
-0.645498378
-0.645788784
-0.646065412
-0.646326142
-0.646570974
-0.646799908
-0.647009234
-0.647202131
-0.647381781
-0.647543942
-0.647692325
-0.64782587
-0.647942986
-0.648048974
-0.648144363
-0.648228093
-0.648305994
-0.648373297
-0.648435829
-0.648494653
-0.648550296
-0.64860541
-0.648659464
-0.648715637
-0.648773931
-0.648838053
-0.648908535
-0.648983256
-0.649070696
-0.649165025
-0.649269953
-0.6493876
-0.649518495
-0.649657339
-0.649815791
-0.649983251
-0.65016767
-0.650364807
-0.650579433
-0.650807836
-0.651049489
-0.651309159
-0.651582607
-0.651868774
-0.652170309
-0.652482973
-0.652807826
-0.653144867
-0.653489858
-0.653847036
-0.654211475
-0.654583652
-0.654961127
-0.655347824
-0.655736905
-0.656132239
-0.656531813
-0.656932606
-0.657337744
-0.657744738
-0.658152261
-0.658560314
-0.658968897
-0.65937695
-0.659782353
-0.660188286
-0.6605921
-0.660992628
-0.661391036
-0.66178849
-0.662181864
-0.662571581
-0.662959867
-0.663345504
-0.663725894
-0.664104641
-0.664481269
-0.664856201
-0.665226787
-0.665596049
-0.665963561
-0.666332346
-0.666700918
-0.667072353
-0.667442091
-0.667812518
-0.668182416
-0.668555493
-0.668926662
-0.669300905
-0.669670167
-0.670043879
-0.670416215
-0.670788126
-0.67115903
-0.671531577
-0.671902058
-0.672274075
-0.672645562
-0.673017102
-0.673391769
-0.673768556
-0.674144335
-0.674523348
-0.674907712
-0.675293296
-0.675679993
-0.676070346
-0.676465839
-0.676864883
-0.677268485
-0.677678869
-0.678094024
-0.67851771
-0.678946854
-0.679385803
-0.679831376
-0.680290621
-0.680758716
-0.681236509
-0.681725059
-0.682223838
-0.682733374
-0.683254569
-0.68378737
-0.684330293
-0.68488233
-0.68544698
-0.686019261
-0.686599809
-0.687188094
-0.687786078
-0.68838475
-0.688990099
-0.689597091
-0.690204295
-0.690811658
-0.691416213
-0.692017322
-0.692612444
-0.693203485
-0.693786206
-0.694362673
-0.694929814
-0.695490596
-0.69603887
-0.696581634
-0.69711364
-0.697640187
-0.698156825
-0.698670547
-0.699173989
-0.699674729
-0.700169745
-0.700658296
-0.701142872
-0.701623685
-0.702101107
-0.702578953
-0.703052666
-0.703525954
-0.70400131
-0.704479791
-0.704958538
-0.705436967
-0.705923186
-0.706409352
-0.706901719
-0.707399543
-0.707902932
-0.708409713
-0.708924125
-0.709442352
-0.709971496
-0.710506046
-0.711050399
-0.711602383
-0.712159826
-0.712729776
-0.713306349
-0.713894211
-0.7144923
-0.715102312
-0.715720221
-0.716347563
-0.716986828
-0.717632347
-0.718290637
-0.718954916
-0.719630535
-0.720311931
-0.721003501
-0.721700053
-0.722404978
-0.723112128
-0.723823995
-0.724539095
-0.725251969
-0.725968605
-0.726680419
-0.727390644
-0.728098642
-0.728798638
-0.72949254
-0.730179871
-0.730859624
-0.731530633
-0.732188711
-0.732840642
-0.733476516
-0.734099459
-0.734710002
-0.735306554
-0.735884506
-0.736449632
-0.736997748
-0.737524614
-0.738035157
-0.738527099
-0.738999222
-0.739449405
-0.739882842
-0.740297307
-0.740688508
-0.741060314
-0.741415055
-0.741749817
-0.742066085
-0.742366295
-0.742646262
-0.742912026
-0.743159985
-0.74339496
-0.74361303
-0.743819812
-0.744009689
-0.744186901
-0.744351659
-0.744505818
-0.744648636
-0.744783771
-0.744906028
-0.745019011
-0.745125476
-0.745222984
-0.745313074
-0.745393837
-0.7454693
-0.745541107
-0.745601732
-0.745661509
-0.745716516
-0.745765377
-0.745813177
-0.74585499
-0.745898762
-0.745940946
-0.745980797
-0.746016144
-0.746055624
-0.746092773
-0.74613236
-0.746169455
-0.746209042
-0.746251331
-0.746292454
-0.746336174
-0.746383127
-0.74643416
-0.74648922
-0.746552548
-0.74662038
-0.746696162
-0.746783178
-0.746877136
-0.746983177
-0.747096796
-0.74722679
-0.747366958
-0.74752239
-0.747689108
-0.747867221
-0.748061284
-0.748269709
-0.748489263
-0.748723125
-0.748973415
-0.749233721
-0.74950929
-0.7497971
-0.750099642
-0.75041522
-0.750742511
-0.751079658
-0.751427404
-0.751788451
-0.752159144
-0.75254123
-0.752931318
-0.753330256
-0.753736719
-0.754151555
-0.75457397
-0.755001683
-0.755436763
-0.75587285
-0.756314819
-0.756758749
-0.757208985
-0.757659062
-0.758109087
-0.758559111
-0.759010089
-0.759457198
-0.759906534
-0.760346383
-0.760788617
-0.761223962
-0.761653424
-0.762080767
-0.762500108
-0.762916004
-0.763324905
-0.763727924
-0.764123735
-0.764514565
-0.764898983
-0.765277889
-0.765647575
-0.766013126
-0.766372107
-0.766724464
-0.76707062
-0.767409463
-0.767743907
-0.768070297
-0.768390645
-0.768707071
-0.769014065
-0.769316554
-0.769612737
-0.769900706
-0.770184064
-0.770460427
-0.77072863
-0.770991108
-0.771246433
-0.771493173
-0.771733394
-0.771965772
-0.772190307
-0.772406469
-0.772616113
-0.772816695
-0.773010812
-0.773195972
-0.773375039
-0.773548276
-0.773712186
-0.773867458
-0.774019498
-0.774161574
-0.774298669
-0.774429299
-0.774552828
-0.774671588
-0.774784412
-0.774892148
-0.774997394
-0.775101686
-0.775199036
-0.775294637
-0.775389337
-0.775481387
-0.775570523
-0.775661037
-0.775749218
-0.775837983
-0.775924628
-0.776013764
-0.776100568
-0.776188644
-0.776277674
-0.776366014
-0.776453931
-0.776540311
-0.776629288
-0.776715774
-0.776799664
-0.77688138
-0.776961772
-0.777039037
-0.777112645
-0.777182067
-0.777244706
-0.777304483
-0.777358113
-0.777408298
-0.77745382
-0.777494096
-0.777531297
-0.777566909
-0.777600401
-0.777631085
-0.777662616
-0.777691604
-0.777723453
-0.777754349
-0.777788636
-0.777825625
-0.777865
-0.77791137
-0.777960813
-0.778016403
-0.778077134
-0.77814502
-0.778220218
-0.778301723
-0.778392077
-0.778489904
-0.778593507
-0.778705165
-0.778825461
-0.778955667
-0.779093292
-0.779239026
-0.77939504
-0.779558526
-0.779732134
-0.779914168
-0.780105635
-0.780308231
-0.780519994
-0.780741297
-0.780972138
-0.781215009
-0.781467525
-0.781729845
-0.782004989
-0.782287182
-0.782581987
-0.782888397
-0.783203075
-0.783528988
-0.783863591
-0.784207416
-0.784558606
-0.784919389
-0.785287537
-0.785662045
-0.786043495
-0.78642998
-0.786817312
-0.787210898
-0.787603265
-0.78799738
-0.788390595
-0.788782644
-0.78917358
-0.789564039
-0.789951
-0.790335842
-0.79071973
-0.791101498
-0.791482047
-0.791861483
-0.792239542
-0.79261548
-0.792992691
-0.793368047
-0.793743721
-0.794118334
-0.794494909
-0.79487106
-0.795247157
-0.795625799
-0.796004069
-0.796382923
-0.796762995
-0.797144233
-0.797526531
-0.79791132
-0.79829277
-0.79867777
-0.799063089
-0.799447931
-0.799834044
-0.800217137
-0.80060182
-0.800985496
-0.801366416
-0.801744474
-0.802122957
-0.802496776
-0.802867627
-0.803232967
-0.803593007
-0.803948014
-0.804297985
-0.804639213
-0.804974929
-0.80530169
-0.805622992
-0.805936027
-0.806237615
-0.806535759
-0.806824204
-0.807104913
-0.807375606
-0.807642536
-0.807899928
-0.808150218
-0.808394467
-0.808632197
-0.808865264
-0.809093774
-0.809317832
-0.809538287
-0.809757099
-0.809973473
-0.81018725
-0.810401558
-0.810614964
-0.810827364
-0.811042519
-0.811259582
-0.811476592
-0.811698053
-0.811924867
-0.812153006
-0.812389465
-0.812630163
-0.812880824
-0.813136785
-0.813402284
-0.813677481
-0.813960363
-0.814256334
-0.81455983
-0.814876627
-0.815204342
-0.815539899
-0.815888281
-0.816245513
-0.816613873
-0.816990978
-0.817375926
-0.817769352
-0.818166965
-0.818570832
-0.818977136
-0.81938556
-0.819794302
-0.820203521
-0.82060744
-0.821011625
-0.821408178
-0.821797948
-0.82217908
-0.822551999
-0.822915961
-0.823264872
-0.823602762
-0.823924805
-0.824233283
-0.824525067
-0.824801431
-0.825059405
-0.82530164
-0.825522995
-0.825726757
-0.825913137
-0.826080756
-0.826229722
-0.826357543
-0.826467771
-0.826558708
-0.826632264
-0.826686688
-0.826722353
-0.826739258
-0.826738887
-0.826719651
-0.826681018
-0.826625851
-0.826552879
-0.826463001
-0.826355371
-0.826230888
-0.826090136
-0.825933327
-0.825759878
-0.825571803
-0.825366187
-0.825146739
-0.824912347
-0.824663063
-0.824400267
-0.82412348
-0.823833974
-0.823532227
-0.823220517
-0.822896671
-0.822567049
-0.822225927
-0.821877598
-0.821521797
-0.821162552
-0.820796258
-0.820423658
-0.820046924
-0.819664838
-0.819281215
-0.818895685
-0.818506603
-0.818113389
-0.817721552
-0.817326641
-0.816929717
-0.816532634
-0.816133272
-0.815731737
-0.815327658
-0.814921089
-0.814513884
-0.814104241
-0.813693909
-0.813279603
-0.812863124
-0.81244585
-0.812027039
-0.811606162
-0.811185867
-0.810764248
-0.810340827
-0.809919843
-0.809497535
-0.809078194
-0.808658323
-0.808241632
-0.807825683
-0.807414239
-0.807008305
-0.806606717
-0.806210535
-0.805822938
-0.805440905
-0.805069523
-0.804705137
-0.804352304
-0.80400689
-0.803673505
-0.803350772
-0.803040758
-0.802740654
-0.802454169
-0.802180296
-0.801920255
-0.801669965
-0.801434937
-0.801213369
-0.801005368
-0.80081263
-0.800632874
-0.80046695
-0.800315229
-0.800179777
-0.800056831
-0.799950048
-0.799857574
-0.799781898
-0.799721114
-0.799677341
-0.799650261
-0.799638921
-0.799647294
-0.799671883
-0.799714596
-0.799773048
-0.799851055
-0.799947928
-0.800060593
-0.800192972
-0.800342309
-0.800508286
-0.80069085
-0.800890849
-0.801105474
-0.801337004
-0.801578709
-0.801835412
-0.802102872
-0.802382998
-0.802669112
-0.802966885
-0.803271441
-0.803582303
-0.803901856
-0.804225702
-0.804558185
-0.804894962
-0.805235606
-0.805581339
-0.805932794
-0.806288436
-0.806646304
-0.807008305
-0.807373327
-0.807744126
-0.808115719
-0.808489803
-0.808868232
-0.809246397
-0.809628112
-0.810012476
-0.81039594
-0.810782054
-0.811167319
-0.811555235
-0.811943044
-0.812333556
-0.812724068
-0.813115587
-0.813507477
-0.813902599
-0.814300743
-0.814698674
-0.815099467
-0.815503916
-0.815911969
-0.816320446
-0.816733692
-0.817149536
-0.817568558
-0.817991344
-0.818417203
-0.818846188
-0.819277347
-0.819710996
-0.820150686
-0.820590376
-0.821031074
-0.821475004
-0.821918086
-0.822361062
-0.822805945
-0.823250034
-0.823693911
-0.824136516
-0.824577213
-0.825016745
-0.825454527
-0.825890031
-0.826322832
-0.826752984
-0.827181175
-0.827605815
-0.828026533
-0.828445079
-0.82886071
-0.829269081
-0.829675597
-0.83007798
-0.830474533
-0.830868755
-0.831257836
-0.831642201
-0.832021425
-0.832397788
-0.832768798
-0.833133979
-0.833497835
-0.833856551
-0.834208112
-0.834557395
-0.834899948
-0.835239692
-0.835575779
-0.835906779
-0.836232108
-0.836553569
-0.836869095
-0.837177414
-0.837480804
-0.83777545
-0.83806273
-0.838341054
-0.838610157
-0.838869986
-0.839118686
-0.839358907
-0.839586781
-0.839804321
-0.840009831
-0.840203312
-0.840384233
-0.840551005
-0.840704528
-0.840845121
-0.840970187
-0.84108264
-0.841180732
-0.841262819
-0.841331764
-0.841385871
-0.841425033
-0.841449676
-0.841461175
-0.841456777
-0.841440614
-0.841409559
-0.84136372
-0.841303306
-0.841230493
-0.841143689
-0.841042947
-0.840928746
-0.840801242
-0.840662239
-0.840509935
-0.840345124
-0.840169025
-0.839980844
-0.839779997
-0.839569823
-0.839347779
-0.839114817
-0.838871946
-0.838618848
-0.838355309
-0.83808186
-0.837801152
-0.83751101
-0.837214986
-0.836909211
-0.836598826
-0.836282506
-0.835960621
-0.835635132
-0.835304768
-0.834972231
-0.834636303
-0.834298043
-0.833958511
-0.833619244
-0.833278493
-0.832938008
-0.832599854
-0.832264508
-0.831927891
-0.831598799
-0.831271721
-0.830948193
-0.830632402
-0.830319261
-0.830014599
-0.829716562
-0.829423028
-0.829140094
-0.828865692
-0.828598549
-0.828343967
-0.828098446
-0.827865962
-0.82764503
-0.827438884
-0.827244979
-0.827064694
-0.826900731
-0.826751023
-0.826619386
-0.826504019
-0.826406351
-0.8263258
-0.826264698
-0.826220713
-0.826197237
-0.82619199
-0.826202801
-0.826233909
-0.826286002
-0.826354947
-0.826443658
-0.826552031
-0.826681654
-0.826829136
-0.826995643
-0.827183294
-0.827389229
-0.827613393
-0.827856741
-0.828118637
-0.828395954
-0.828690971
-0.829002787
-0.829327639
-0.829670616
-0.830028272
-0.830397904
-0.830782534
-0.831180306
-0.831589419
-0.832012681
-0.832446807
-0.832892062
-0.833347333
-0.833813679
-0.834291048
-0.83477679
-0.83527011
-0.835772439
-0.836281923
-0.836798242
-0.837319808
-0.837847998
-0.83838064
-0.838917786
-0.839457105
-0.84000024
-0.840546183
-0.841093928
-0.841640984
-0.842191378
-0.842740342
-0.843289094
-0.843835991
-0.844379973
-0.844922048
-0.845462109
-0.845998619
-0.846530148
-0.84705696
-0.847579003
-0.848095322
-0.8486047
-0.849109202
-0.849604907
-0.850095047
-0.850577981
-0.851052647
-0.851519364
-0.85197739
-0.852424924
-0.852864985
-0.853295985
-0.85371612
-0.854126823
-0.854527828
-0.854918711
-0.85530032
-0.855670429
-0.856030046
-0.856380283
-0.856719549
-0.857047635
-0.857367612
-0.857675983
-0.857972272
-0.858259393
-0.858535067
-0.858799666
-0.859054408
-0.859298233
-0.859530293
-0.859751436
-0.859960815
-0.8601588
-0.860344173
-0.860518735
-0.860680896
-0.860830763
-0.860968759
-0.861093719
-0.861206967
-0.861307549
-0.861396526
-0.861474957
-0.861539715
-0.861593504
-0.861637489
-0.861670345
-0.861692603
-0.861706964
-0.861710356
-0.861704315
-0.861691596
-0.861669498
-0.86164104
-0.861604315
-0.861562079
-0.861513642
-0.861460225
-0.861403097
-0.861340723
-0.861275594
-0.861206172
-0.861134259
-0.861059432
-0.860981478
-0.860903312
-0.860821224
-0.860736699
-0.860652757
-0.860565529
-0.860477241
-0.860388476
-0.860298015
-0.860207873
-0.860115186
-0.860022076
-0.859928118
-0.859833683
-0.85973628
-0.859637658
-0.859536175
-0.859432148
-0.859326213
-0.859215191
-0.859101625
-0.858985992
-0.858865431
-0.85874026
-0.858611167
-0.858476986
-0.858338937
-0.85819543
-0.85804604
-0.85789241
-0.857732422
-0.857567028
-0.857396388
-0.857218328
-0.857032425
-0.856840482
-0.856640642
-0.856433806
-0.856216796
-0.855991731
-0.855758028
-0.855516217
-0.85526492
-0.855005568
-0.854734557
-0.854457505
-0.854168847
-0.853872187
-0.85356779
-0.853253166
-0.852929956
-0.852599221
-0.852260643
-0.851914063
-0.851560964
-0.851200023
-0.850831503
-0.850457261
-0.850076764
-0.849689591
-0.84929415
-0.848893252
-0.848488272
-0.848075609
-0.847657434
-0.847234013
-0.846807518
-0.846374717
-0.845939266
-0.845500052
-0.845057659
-0.844613305
-0.844168952
-0.843725128
-0.843279873
-0.842836261
-0.84239567
-0.84195794
-0.841523178
-0.841093716
-0.840671672
-0.840257525
-0.839851645
-0.839455197
-0.839071309
-0.838697226
-0.838336284
-0.837989439
-0.837656743
-0.83733772
-0.837033376
-0.836744347
-0.83647074
-0.836212607
-0.835968623
-0.835742551
-0.835531423
-0.83533365
-0.835151245
-0.834985268
-0.834833016
-0.834696769
-0.834575678
-0.834469902
-0.834377322
-0.834300587
-0.834238181
-0.834192797
-0.834161054
-0.834144016
-0.83414266
-0.834156449
-0.834185723
-0.834229739
-0.834291742
-0.834365976
-0.834456463
-0.834560898
-0.834679546
-0.834812635
-0.834959433
-0.835119957
-0.835294572
-0.835481439
-0.835680935
-0.835893377
-0.836117498
-0.836353613
-0.8366004
-0.836856795
-0.837122586
-0.83739984
-0.837684141
-0.837980001
-0.838282119
-0.838591487
-0.838908804
-0.839235479
-0.83956861
-0.839907596
-0.840253911
-0.840606818
-0.840965767
-0.841330275
-0.841700183
-0.842076636
-0.842457731
-0.842842922
-0.843231807
-0.843626294
-0.84402396
-0.844425495
-0.844831852
-0.845241124
-0.845653523
-0.846068783
-0.8464886
-0.846911439
-0.847337669
-0.847765594
-0.848196806
-0.848629978
-0.849065376
-0.849503847
-0.849944174
-0.850385242
-0.850829437
-0.851273208
-0.851719787
-0.852165466
-0.852613105
-0.853062547
-0.853510716
-0.853959044
-0.854406949
-0.854854477
-0.85530271
-0.855748457
-0.856194173
-0.856638744
-0.857081069
-0.857524967
-0.857963661
-0.858401332
-0.858836926
-0.859270072
-0.859698591
-0.860124709
-0.860544495
-0.860961875
-0.861373712
-0.861779894
-0.862182325
-0.862577972
-0.862969369
-0.86335296
-0.863731585
-0.86410498
-0.864470744
-0.864829237
-0.865182728
-0.865528497
-0.86586849
-0.866201212
-0.866526537
-0.866844548
-0.867154059
-0.867455891
-0.867748316
-0.868030832
-0.86830383
-0.868567597
-0.868822879
-0.869068998
-0.869304159
-0.869528795
-0.869745561
-0.869950801
-0.870145686
-0.870330587
-0.870505069
-0.870668662
-0.87082209
-0.870962963
-0.871093922
-0.871213699
-0.871322813
-0.871419633
-0.871504847
-0.871578509
-0.871640193
-0.871690326
-0.871729329
-0.871754713
-0.871768757
-0.871769605
-0.87175784
-0.871733304
-0.871695466
-0.871645122
-0.871581688
-0.871505748
-0.871415976
-0.871314599
-0.871200132
-0.871072682
-0.87093299
-0.870781109
-0.870617623
-0.870441471
-0.870252866
-0.870053026
-0.869842164
-0.869621391
-0.869389384
-0.869147043
-0.868895798
-0.868634539
-0.868367449
-0.868091987
-0.867809848
-0.867520448
-0.867225643
-0.866927605
-0.866623261
-0.866317274
-0.866007313
-0.865693907
-0.865380978
-0.865067095
-0.864752894
-0.864438853
-0.864126348
-0.863816439
-0.86350881
-0.863205208
-0.86290505
-0.862609397
-0.862321322
-0.862038441
-0.861762873
-0.861494883
-0.861234736
-0.860984604
-0.860741097
-0.860507341
-0.860282382
-0.860066379
-0.859859703
-0.859661983
-0.859472794
-0.859293675
-0.859123777
-0.858964212
-0.85881302
-0.858672057
-0.858540685
-0.858419064
-0.858307141
-0.858205127
-0.858112918
-0.858031572
-0.857960932
-0.857898028
-0.857847207
-0.857804123
-0.857772326
-0.857750069
-0.857736237
-0.857731892
-0.857736873
-0.857752348
-0.85777434
-0.857804759
-0.85784514
-0.857893258
-0.857949909
-0.858015303
-0.858087746
-0.858168032
-0.858257538
-0.858355047
-0.858459604
-0.858570361
-0.85868981
-0.858813921
-0.858945611
-0.859082494
-0.859224995
-0.859372106
-0.859525841
-0.859682862
-0.859846295
-0.860012113
-0.860184714
-0.860360495
-0.860539562
-0.860722656
-0.860909459
-0.861099124
-0.861292711
-0.861488152
-0.861688363
-0.861891065
-0.862096575
-0.86230447
-0.862516393
-0.862731707
-0.862948346
-0.86316843
-0.863391799
-0.863618083
-0.863845904
-0.864075685
-0.864310077
-0.864544522
-0.864783684
-0.865022898
-0.865265928
-0.865509912
-0.865756281
-0.866003392
-0.866254318
-0.866505403
-0.866758502
-0.867012554
-0.867267349
-0.867525535
-0.867784145
-0.868044981
-0.868307619
-0.868571317
-0.868835968
-0.869102475
-0.869369299
-0.869637713
-0.869907346
-0.870178728
-0.870448997
-0.870720484
-0.870992661
-0.871264626
-0.871539081
-0.871812742
-0.872085819
-0.872358579
-0.87263208
-0.872904628
-0.873177387
-0.873449087
-0.873719515
-0.873990367
-0.87425894
-0.874527566
-0.874795556
-0.875062168
-0.875328198
-0.87559322
-0.875855434
-0.876116641
-0.876375622
-0.87663402
-0.876890511
-0.877144246
-0.877396603
-0.877648218
-0.877896865
-0.878144718
-0.878390185
-0.878634487
-0.878878418
-0.879120229
-0.879361086
-0.879600407
-0.879840204
-0.88007873
-0.880314924
-0.880551912
-0.880788371
-0.881024088
-0.881260494
-0.881496211
-0.88173357
-0.881971672
-0.882210197
-0.882450048
-0.882691382
-0.882933193
-0.883178025
-0.883423175
-0.883670603
-0.883918774
-0.884168852
-0.884420043
-0.884671181
-0.884924757
-0.885176902
-0.885429948
-0.885682835
-0.885934609
-0.886185058
-0.886434129
-0.886680445
-0.886923634
-0.887162636
-0.887398459
-0.887629883
-0.887855213
-0.888073866
-0.888286584
-0.888491087
-0.888687218
-0.888874657
-0.889051551
-0.889219806
-0.889375873
-0.889522243
-0.889656052
-0.889778415
-0.88988843
-0.889985462
-0.890071153
-0.890142218
-0.890200299
-0.89024598
-0.890277035
-0.890295265
-0.890299345
-0.890291184
-0.890269033
-0.890234692
-0.890187846
-0.890128811
-0.890058912
-0.889978043
-0.889885781
-0.88978329
-0.889672374
-0.889552184
-0.889423621
-0.889287956
-0.889145297
-0.888996119
-0.888841854
-0.888683455
-0.888520923
-0.888356854
-0.888190029
-0.888022303
-0.887854525
-0.887686428
-0.887519179
-0.887353573
-0.887190087
-0.887028032
-0.886870163
-0.886714308
-0.886561738
-0.886413302
-0.886267834
-0.886126764
-0.88598845
-0.885855224
-0.885726078
-0.885602231
-0.885481564
-0.885365878
-0.885255598
-0.885150193
-0.885050193
-0.884954804
-0.884865616
-0.884781196
-0.884702765
-0.884630376
-0.884561961
-0.884500912
-0.884445321
-0.884395772
-0.884352317
-0.88431432
-0.884282842
-0.884259048
-0.884241136
-0.884229795
-0.884226297
-0.884229212
-0.884240129
-0.884257246
-0.884281941
-0.884314055
-0.884353059
-0.884398368
-0.884450197
-0.884510928
-0.884577064
-0.884649666
-0.884729209
-0.884815589
-0.884908859
-0.885008434
-0.885115058
-0.885228253
-0.885346747
-0.885471548
-0.885603026
-0.885740651
-0.885883681
-0.886031958
-0.886185588
-0.886345523
-0.88650991
-0.886680975
-0.88685559
-0.887036193
-0.887221247
-0.887409906
-0.887602221
-0.887798351
-0.887997714
-0.888199144
-0.888403594
-0.888609052
-0.888814085
-0.889020019
-0.889225689
-0.889432206
-0.889635384
-0.889836708
-0.890036548
-0.890232732
-0.890425259
-0.890614871
-0.890798389
-0.890977773
-0.891151752
-0.891320749
-0.891483229
-0.89164025
-0.891791388
-0.891936698
-0.892074217
-0.892207443
-0.892334258
-0.892454872
-0.892572147
-0.892682428
-0.892788521
-0.892889952
-0.892986083
-0.89307808
-0.893166739
-0.893250151
-0.893330702
-0.893408126
-0.893482
-0.893552958
-0.893621797
-0.893687616
-0.893752427
-0.89381549
-0.893877069
-0.893937429
-0.893997047
-0.894056718
-0.89411729
-0.894176697
-0.894237375
-0.894298318
-0.894360214
-0.894423012
-0.89448793
-0.894553218
-0.894620997
-0.894689678
-0.894761802
-0.894834563
-0.894910503
-0.894989517
-0.895071181
-0.895155123
-0.895243358
-0.895336203
-0.895432864
-0.895533075
-0.895638321
-0.895748178
-0.895862803
-0.895981881
-0.89610631
-0.896234821
-0.896368153
-0.896505248
-0.896648173
-0.896795602
-0.896945681
-0.897100582
-0.897259193
-0.897421619
-0.897587702
-0.897755904
-0.897926969
-0.89810063
-0.898276093
-0.898453251
-0.898631523
-0.898809847
-0.89898902
-0.899168192
-0.899346781
-0.899524576
-0.89970094
-0.899876243
-0.900049904
-0.900221022
-0.900390337
-0.900557003
-0.900720913
-0.900883233
-0.90104248
-0.901198494
-0.9013526
-0.901502573
-0.901649525
-0.90179351
-0.90193495
-0.902072628
-0.902205908
-0.902336114
-0.902462717
-0.902586192
-0.902705535
-0.902821644
-0.902933832
-0.903042523
-0.903148087
-0.90325063
-0.903349463
-0.903445965
-0.903539447
-0.903629748
-0.903717294
-0.903802985
-0.903885073
-0.903964988
-0.904042841
-0.904117266
-0.90418886
-0.904258796
-0.904324196
-0.904387354
-0.904446877
-0.904501816
-0.904552907
-0.904598609
-0.90463951
-0.904675228
-0.904704443
-0.904728423
-0.904745842
-0.904758444
-0.904761724
-0.904760246
-0.904751518
-0.904735323
-0.90471262
-0.904682239
-0.904644406
-0.904600061
-0.904546829
-0.904486829
-0.904418992
-0.904342156
-0.904257063
-0.904163762
-0.904062841
-0.903952698
-0.903832874
-0.903704517
-0.903567645
-0.903421291
-0.903265993
-0.903101267
-0.902926911
-0.902743658
-0.902551301
-0.902348668
-0.902137721
-0.901917568
-0.901688412
-0.901450575
-0.901204435
-0.900950573
-0.900688513
-0.900419055
-0.900142628
-0.899861145
-0.899571852
-0.89927968
-0.89898257
-0.898681151
-0.898377761
-0.898071971
-0.897763673
-0.897454253
-0.897145134
-0.896835628
-0.896528115
-0.896222494
-0.895918071
-0.895618825
-0.895323368
-0.895032866
-0.89474902
-0.89447182
-0.894202017
-0.893941144
-0.893690149
-0.893448666
-0.893219129
-0.893001218
-0.892796407
-0.892605014
-0.892428465
-0.892265488
-0.892119314
-0.891988955
-0.891876104
-0.891779258
-0.891701193
-0.891641537
-0.891598883
-0.891575454
-0.891571326
-0.891585708
-0.891619407
-0.891671797
-0.891744059
-0.891835145
-0.891945224
-0.892074741
-0.892222748
-0.892389944
-0.892576037
-0.892778781
-0.89300046
-0.893238164
-0.893492429
-0.893762936
-0.894048165
-0.894347385
-0.894660012
-0.894986321
-0.895324152
-0.895673202
-0.8960339
-0.896403813
-0.896784023
-0.897171774
-0.897569032
-0.897971844
-0.898381906
-0.898798162
-0.899219771
-0.899646319
-0.900077482
-0.900511571
-0.900949439
-0.901389065
-0.901830351
-0.902273332
-0.902716865
-0.90316143
-0.903605689
-0.904050234
-0.904494317
-0.904937314
-0.905380274
-0.905821608
-0.906262003
-0.906701953
-0.907140106
-0.907578228
-0.908014167
-0.908449612
-0.908884141
-0.909318076
-0.90975093
-0.910181707
-0.910612198
-0.91104103
-0.911467678
-0.911892922
-0.912317568
-0.912739447
-0.913160044
-0.913578547
-0.913995021
-0.91440884
-0.914819733
-0.915227961
-0.91563249
-0.916034263
-0.916431966
-0.916825817
-0.917215985
-0.917601351
-0.917982504
-0.918358915
-0.91873002
-0.919096123
-0.919455957
-0.919810015
-0.920157602
