0.5
0.4998420946415
0.499368478303
0.4985794501305
0.4974755084905
0.496057350657
0.494325872369
0.4922821672645
0.489927526192
0.4872634363935
0.4842915805645
0.481013835793
0.4774322723735
0.4735491524975
0.469366928827
0.464888242944
0.460115923683
0.4550529853425
0.449702625783
0.444068224407
0.438153340022
0.4319617085965
0.4254972408975
0.418764020021
0.411766298814
0.4045084971875
0.396995199324
0.3892311507835
0.3812212555055
0.372970572712
0.3644843137105
0.3557678386045
0.3468266529065
0.3376664040605
0.3282928778765
0.3187119948745
0.308929806545
0.298952491529
0.288786351711
0.278437808244
0.2679133974895
0.257219766891
0.246363670774
0.2353519660825
0.224191608045
0.2128896457825
0.201453217857
0.189889547761
0.1782059393565
0.1664097722615
0.1545084971875
0.142509631235
0.130420753145
0.118249498512
0.106003554961
0.093690657293
0.0813185825975
0.0688951453425
0.0564281924365
0.04392559827535
0.03139525976465
0.01884509133495
0.0062830199417
-0.0062830199417
-0.01884509133495
-0.03139525976465
-0.04392559827535
-0.0564281924365
-0.0688951453425
-0.0813185825975
-0.093690657293
-0.106003554961
-0.118249498512
-0.130420753145
-0.142509631235
-0.1545084971875
-0.1664097722615
-0.1782059393565
-0.189889547761
-0.201453217857
-0.2128896457825
-0.224191608045
-0.2353519660825
-0.246363670774
-0.257219766891
-0.2679133974895
-0.278437808244
-0.288786351711
-0.298952491529
-0.308929806545
-0.3187119948745
-0.3282928778765
-0.3376664040605
-0.3468266529065
-0.3557678386045
-0.3644843137105
-0.372970572712
-0.3812212555055
-0.3892311507835
-0.396995199324
-0.4045084971875
-0.411766298814
-0.418764020021
-0.4254972408975
-0.4319617085965
-0.438153340022
-0.444068224407
-0.449702625783
-0.4550529853425
-0.460115923683
-0.464888242944
-0.469366928827
-0.4735491524975
-0.4774322723735
-0.481013835793
-0.4842915805645
-0.4872634363935
-0.489927526192
-0.4922821672645
-0.494325872369
-0.496057350657
-0.4974755084905
-0.4985794501305
-0.499368478303
-0.4998420946415
-0.5
-0.4998420946415
-0.499368478303
-0.4985794501305
-0.4974755084905
-0.496057350657
-0.494325872369
-0.4922821672645
-0.489927526192
-0.4872634363935
-0.4842915805645
-0.481013835793
-0.4774322723735
-0.4735491524975
-0.469366928827
-0.464888242944
-0.460115923683
-0.4550529853425
-0.449702625783
-0.444068224407
-0.438153340022
-0.4319617085965
-0.4254972408975
-0.418764020021
-0.411766298814
-0.4045084971875
-0.396995199324
-0.3892311507835
-0.3812212555055
-0.372970572712
-0.3644843137105
-0.3557678386045
-0.3468266529065
-0.3376664040605
-0.3282928778765
-0.3187119948745
-0.308929806545
-0.298952491529
-0.288786351711
-0.278437808244
-0.2679133974895
-0.257219766891
-0.246363670774
-0.2353519660825
-0.224191608045
-0.2128896457825
-0.201453217857
-0.189889547761
-0.1782059393565
-0.1664097722615
-0.1545084971875
-0.142509631235
-0.130420753145
-0.118249498512
-0.106003554961
-0.093690657293
-0.0813185825975
-0.0688951453425
-0.0564281924365
-0.04392559827535
-0.03139525976465
-0.01884509133495
-0.0062830199417
0.0062830199417
0.01884509133495
0.03139525976465
0.04392559827535
0.0564281924365
0.0688951453425
0.0813185825975
0.093690657293
0.106003554961
0.118249498512
0.130420753145
0.142509631235
0.1545084971875
0.1664097722615
0.1782059393565
0.189889547761
0.201453217857
0.2128896457825
0.224191608045
0.2353519660825
0.246363670774
0.257219766891
0.2679133974895
0.278437808244
0.288786351711
0.298952491529
0.308929806545
0.3187119948745
0.3282928778765
0.3376664040605
0.3468266529065
0.3557678386045
0.3644843137105
0.372970572712
0.3812212555055
0.3892311507835
0.396995199324
0.4045084971875
0.411766298814
0.418764020021
0.4254972408975
0.4319617085965
0.438153340022
0.444068224407
0.449702625783
0.4550529853425
0.460115923683
0.464888242944
0.469366928827
0.4735491524975
0.4774322723735
0.481013835793
0.4842915805645
0.4872634363935
0.489927526192
0.4922821672645
0.494325872369
0.496057350657
0.4974755084905
0.4985794501305
0.499368478303
0.4998420946415
0.5
0.4998420946415
0.499368478303
0.4985794501305
0.4974755084905
0.496057350657
0.494325872369
0.4922821672645
0.489927526192
0.4872634363935
0.4842915805645
0.481013835793
0.4774322723735
0.4735491524975
0.469366928827
0.464888242944
0.460115923683
0.4550529853425
0.449702625783
0.444068224407
0.438153340022
0.4319617085965
0.4254972408975
0.418764020021
0.411766298814
0.4045084971875
0.396995199324
0.3892311507835
0.3812212555055
0.372970572712
0.3644843137105
0.3557678386045
0.3468266529065
0.3376664040605
0.3282928778765
0.3187119948745
0.308929806545
0.298952491529
0.288786351711
0.278437808244
0.2679133974895
0.257219766891
0.246363670774
0.2353519660825
0.224191608045
0.2128896457825
0.201453217857
0.189889547761
0.1782059393565
0.1664097722615
0.1545084971875
0.142509631235
0.130420753145
0.118249498512
0.106003554961
0.093690657293
0.0813185825975
0.0688951453425
0.0564281924365
0.04392559827535
0.03139525976465
0.01884509133495
0.0062830199417
-0.0062830199417
-0.01884509133495
-0.03139525976465
-0.04392559827535
-0.0564281924365
-0.0688951453425
-0.0813185825975
-0.093690657293
-0.106003554961
-0.118249498512
-0.130420753145
-0.142509631235
-0.1545084971875
-0.1664097722615
-0.1782059393565
-0.189889547761
-0.201453217857
-0.2128896457825
-0.224191608045
-0.2353519660825
-0.246363670774
-0.257219766891
-0.2679133974895
-0.278437808244
-0.288786351711
-0.298952491529
-0.308929806545
-0.3187119948745
-0.3282928778765
-0.3376664040605
-0.3468266529065
-0.3557678386045
-0.3644843137105
-0.372970572712
-0.3812212555055
-0.3892311507835
-0.396995199324
-0.4045084971875
-0.411766298814
-0.418764020021
-0.4254972408975
-0.4319617085965
-0.438153340022
-0.444068224407
-0.449702625783
-0.4550529853425
-0.460115923683
-0.464888242944
-0.469366928827
-0.4735491524975
-0.4774322723735
-0.481013835793
-0.4842915805645
-0.4872634363935
-0.489927526192
-0.4922821672645
-0.494325872369
-0.496057350657
-0.4974755084905
-0.4985794501305
-0.499368478303
-0.4998420946415
-0.5
-0.4998420946415
-0.499368478303
-0.4985794501305
-0.4974755084905
-0.496057350657
-0.494325872369
-0.4922821672645
-0.489927526192
-0.4872634363935
-0.4842915805645
-0.481013835793
-0.4774322723735
-0.4735491524975
-0.469366928827
-0.464888242944
-0.460115923683
-0.4550529853425
-0.449702625783
-0.444068224407
-0.438153340022
-0.4319617085965
-0.4254972408975
-0.418764020021
-0.411766298814
-0.4045084971875
-0.396995199324
-0.3892311507835
-0.3812212555055
-0.372970572712
-0.3644843137105
-0.3557678386045
-0.3468266529065
-0.3376664040605
-0.3282928778765
-0.3187119948745
-0.308929806545
-0.298952491529
-0.288786351711
-0.278437808244
-0.2679133974895
-0.257219766891
-0.246363670774
-0.2353519660825
-0.224191608045
-0.2128896457825
-0.201453217857
-0.189889547761
-0.1782059393565
-0.1664097722615
-0.1545084971875
-0.142509631235
-0.130420753145
-0.118249498512
-0.106003554961
-0.093690657293
-0.0813185825975
-0.0688951453425
-0.0564281924365
-0.04392559827535
-0.03139525976465
-0.01884509133495
-0.0062830199417
0.0062830199417
0.01884509133495
0.03139525976465
0.04392559827535
0.0564281924365
0.0688951453425
0.0813185825975
0.093690657293
0.106003554961
0.118249498512
0.130420753145
0.142509631235
0.1545084971875
0.1664097722615
0.1782059393565
0.189889547761
0.201453217857
0.2128896457825
0.224191608045
0.2353519660825
0.246363670774
0.257219766891
0.2679133974895
0.278437808244
0.288786351711
0.298952491529
0.308929806545
0.3187119948745
0.3282928778765
0.3376664040605
0.3468266529065
0.3557678386045
0.3644843137105
0.372970572712
0.3812212555055
0.3892311507835
0.396995199324
0.4045084971875
0.411766298814
0.418764020021
0.4254972408975
0.4319617085965
0.438153340022
0.444068224407
0.449702625783
0.4550529853425
0.460115923683
0.464888242944
0.469366928827
0.4735491524975
0.4774322723735
0.481013835793
0.4842915805645
0.4872634363935
0.489927526192
0.4922821672645
0.494325872369
0.496057350657
0.4974755084905
0.4985794501305
0.499368478303
0.4998420946415
0.5
0.4998420946415
0.499368478303
0.4985794501305
0.4974755084905
0.496057350657
0.494325872369
0.4922821672645
0.489927526192
0.4872634363935
0.4842915805645
0.481013835793
0.4774322723735
0.4735491524975
0.469366928827
0.464888242944
0.460115923683
0.4550529853425
0.449702625783
0.444068224407
0.438153340022
0.4319617085965
0.4254972408975
0.418764020021
0.411766298814
0.4045084971875
0.396995199324
0.3892311507835
0.3812212555055
0.372970572712
0.3644843137105
0.3557678386045
0.3468266529065
0.3376664040605
0.3282928778765
0.3187119948745
0.308929806545
0.298952491529
0.288786351711
0.278437808244
0.2679133974895
0.257219766891
0.246363670774
0.2353519660825
0.224191608045
0.2128896457825
0.201453217857
0.189889547761
0.1782059393565
0.1664097722615
0.1545084971875
0.142509631235
0.130420753145
0.118249498512
0.106003554961
0.093690657293
0.0813185825975
0.0688951453425
0.0564281924365
0.04392559827535
0.03139525976465
0.01884509133495
0.0062830199417
-0.0062830199417
-0.01884509133495
-0.03139525976465
-0.04392559827535
-0.0564281924365
-0.0688951453425
-0.0813185825975
-0.093690657293
-0.106003554961
-0.118249498512
-0.130420753145
-0.142509631235
-0.1545084971875
-0.1664097722615
-0.1782059393565
-0.189889547761
-0.201453217857
-0.2128896457825
-0.224191608045
-0.2353519660825
-0.246363670774
-0.257219766891
-0.2679133974895
-0.278437808244
-0.288786351711
-0.298952491529
-0.308929806545
-0.3187119948745
-0.3282928778765
-0.3376664040605
-0.3468266529065
-0.3557678386045
-0.3644843137105
-0.372970572712
-0.3812212555055
-0.3892311507835
-0.396995199324
-0.4045084971875
-0.411766298814
-0.418764020021
-0.4254972408975
-0.4319617085965
-0.438153340022
-0.444068224407
-0.449702625783
-0.4550529853425
-0.460115923683
-0.464888242944
-0.469366928827
-0.4735491524975
-0.4774322723735
-0.481013835793
-0.4842915805645
-0.4872634363935
-0.489927526192
-0.4922821672645
-0.494325872369
-0.496057350657
-0.4974755084905
-0.4985794501305
-0.499368478303
-0.4998420946415
-0.5
-0.4998420946415
-0.499368478303
-0.4985794501305
-0.4974755084905
-0.496057350657
-0.494325872369
-0.4922821672645
-0.489927526192
-0.4872634363935
-0.4842915805645
-0.481013835793
-0.4774322723735
-0.4735491524975
-0.469366928827
-0.464888242944
-0.460115923683
-0.4550529853425
-0.449702625783
-0.444068224407
-0.438153340022
-0.4319617085965
-0.4254972408975
-0.418764020021
-0.411766298814
-0.4045084971875
-0.396995199324
-0.3892311507835
-0.3812212555055
-0.372970572712
-0.3644843137105
-0.3557678386045
-0.3468266529065
-0.3376664040605
-0.3282928778765
-0.3187119948745
-0.308929806545
-0.298952491529
-0.288786351711
-0.278437808244
-0.2679133974895
-0.257219766891
-0.246363670774
-0.2353519660825
-0.224191608045
-0.2128896457825
-0.201453217857
-0.189889547761
-0.1782059393565
-0.1664097722615
-0.1545084971875
-0.142509631235
-0.130420753145
-0.118249498512
-0.106003554961
-0.093690657293
-0.0813185825975
-0.0688951453425
-0.0564281924365
-0.04392559827535
-0.03139525976465
-0.01884509133495
-0.0062830199417
0.0062830199417
0.01884509133495
0.03139525976465
0.04392559827535
0.0564281924365
0.0688951453425
0.0813185825975
0.093690657293
0.106003554961
0.118249498512
0.130420753145
0.142509631235
0.1545084971875
0.1664097722615
0.1782059393565
0.189889547761
0.201453217857
0.2128896457825
0.224191608045
0.2353519660825
0.246363670774
0.257219766891
0.2679133974895
0.278437808244
0.288786351711
0.298952491529
0.308929806545
0.3187119948745
0.3282928778765
0.3376664040605
0.3468266529065
0.3557678386045
0.3644843137105
0.372970572712
0.3812212555055
0.3892311507835
0.396995199324
0.4045084971875
0.411766298814
0.418764020021
0.4254972408975
0.4319617085965
0.438153340022
0.444068224407
0.449702625783
0.4550529853425
0.460115923683
0.464888242944
0.469366928827
0.4735491524975
0.4774322723735
0.481013835793
0.4842915805645
0.4872634363935
0.489927526192
0.4922821672645
0.494325872369
0.496057350657
0.4974755084905
0.4985794501305
0.499368478303
0.4998420946415
0.5
0.4998420946415
0.499368478303
0.4985794501305
0.4974755084905
0.496057350657
0.494325872369
0.4922821672645
0.489927526192
0.4872634363935
0.4842915805645
0.481013835793
0.4774322723735
0.4735491524975
0.469366928827
0.464888242944
0.460115923683
0.4550529853425
0.449702625783
0.444068224407
0.438153340022
0.4319617085965
0.4254972408975
0.418764020021
0.411766298814
0.4045084971875
0.396995199324
0.3892311507835
0.3812212555055
0.372970572712
0.3644843137105
0.3557678386045
0.3468266529065
0.3376664040605
0.3282928778765
0.3187119948745
0.308929806545
0.298952491529
0.288786351711
0.278437808244
0.2679133974895
0.257219766891
0.246363670774
0.2353519660825
0.224191608045
0.2128896457825
0.201453217857
0.189889547761
0.1782059393565
0.1664097722615
0.1545084971875
0.142509631235
0.130420753145
0.118249498512
0.106003554961
0.093690657293
0.0813185825975
0.0688951453425
0.0564281924365
0.04392559827535
0.03139525976465
0.01884509133495
0.0062830199417
-0.0062830199417
-0.01884509133495
-0.03139525976465
-0.04392559827535
-0.0564281924365
-0.0688951453425
-0.0813185825975
-0.093690657293
-0.106003554961
-0.118249498512
-0.130420753145
-0.142509631235
-0.1545084971875
-0.1664097722615
-0.1782059393565
-0.189889547761
-0.201453217857
-0.2128896457825
-0.224191608045
-0.2353519660825
-0.246363670774
-0.257219766891
-0.2679133974895
-0.278437808244
-0.288786351711
-0.298952491529
-0.308929806545
-0.3187119948745
-0.3282928778765
-0.3376664040605
-0.3468266529065
-0.3557678386045
-0.3644843137105
-0.372970572712
-0.3812212555055
-0.3892311507835
-0.396995199324
-0.4045084971875
-0.411766298814
-0.418764020021
-0.4254972408975
-0.4319617085965
-0.438153340022
-0.444068224407
-0.449702625783
-0.4550529853425
-0.460115923683
-0.464888242944
-0.469366928827
-0.4735491524975
-0.4774322723735
-0.481013835793
-0.4842915805645
-0.4872634363935
-0.489927526192
-0.4922821672645
-0.494325872369
-0.496057350657
-0.4974755084905
-0.4985794501305
-0.499368478303
-0.4998420946415
-0.5
-0.4998420946415
-0.499368478303
-0.4985794501305
-0.4974755084905
-0.496057350657
-0.494325872369
-0.4922821672645
-0.489927526192
-0.4872634363935
-0.4842915805645
-0.481013835793
-0.4774322723735
-0.4735491524975
-0.469366928827
-0.464888242944
-0.460115923683
-0.4550529853425
-0.449702625783
-0.444068224407
-0.438153340022
-0.4319617085965
-0.4254972408975
-0.418764020021
-0.411766298814
-0.4045084971875
-0.396995199324
-0.3892311507835
-0.3812212555055
-0.372970572712
-0.3644843137105
-0.3557678386045
-0.3468266529065
-0.3376664040605
-0.3282928778765
-0.3187119948745
-0.308929806545
-0.298952491529
-0.288786351711
-0.278437808244
-0.2679133974895
-0.257219766891
-0.246363670774
-0.2353519660825
-0.224191608045
-0.2128896457825
-0.201453217857
-0.189889547761
-0.1782059393565
-0.1664097722615
-0.1545084971875
-0.142509631235
-0.130420753145
-0.118249498512
-0.106003554961
-0.093690657293
-0.0813185825975
-0.0688951453425
-0.0564281924365
-0.04392559827535
-0.03139525976465
-0.01884509133495
-0.0062830199417
0.0062830199417
0.01884509133495
0.03139525976465
0.04392559827535
0.0564281924365
0.0688951453425
0.0813185825975
0.093690657293
0.106003554961
0.118249498512
0.130420753145
0.142509631235
0.1545084971875
0.1664097722615
0.1782059393565
0.189889547761
0.201453217857
0.2128896457825
0.224191608045
0.2353519660825
0.246363670774
0.257219766891
0.2679133974895
0.278437808244
0.288786351711
0.298952491529
0.308929806545
0.3187119948745
0.3282928778765
0.3376664040605
0.3468266529065
0.3557678386045
0.3644843137105
0.372970572712
0.3812212555055
0.3892311507835
0.396995199324
0.4045084971875
0.411766298814
0.418764020021
0.4254972408975
0.4319617085965
0.438153340022
0.444068224407
0.449702625783
0.4550529853425
0.460115923683
0.464888242944
0.469366928827
0.4735491524975
0.4774322723735
0.481013835793
0.4842915805645
0.4872634363935
0.489927526192
0.4922821672645
0.494325872369
0.496057350657
0.4974755084905
0.4985794501305
0.499368478303
0.4998420946415
0.5
0.4998420946415
0.499368478303
0.4985794501305
0.4974755084905
0.496057350657
0.494325872369
0.4922821672645
0.489927526192
0.4872634363935
0.4842915805645
0.481013835793
0.4774322723735
0.4735491524975
0.469366928827
0.464888242944
0.460115923683
0.4550529853425
0.449702625783
0.444068224407
0.438153340022
0.4319617085965
0.4254972408975
0.418764020021
0.411766298814
0.4045084971875
0.396995199324
0.3892311507835
0.3812212555055
0.372970572712
0.3644843137105
0.3557678386045
0.3468266529065
0.3376664040605
0.3282928778765
0.3187119948745
0.308929806545
0.298952491529
0.288786351711
0.278437808244
0.2679133974895
0.257219766891
0.246363670774
0.2353519660825
0.224191608045
0.2128896457825
0.201453217857
0.189889547761
0.1782059393565
0.1664097722615
0.1545084971875
0.142509631235
0.130420753145
0.118249498512
0.106003554961
0.093690657293
0.0813185825975
0.0688951453425
0.0564281924365
0.04392559827535
0.03139525976465
0.01884509133495
0.0062830199417
-0.0062830199417
-0.01884509133495
-0.03139525976465
-0.04392559827535
-0.0564281924365
-0.0688951453425
-0.0813185825975
-0.093690657293
-0.106003554961
-0.118249498512
-0.130420753145
-0.142509631235
-0.1545084971875
-0.1664097722615
-0.1782059393565
-0.189889547761
-0.201453217857
-0.2128896457825
-0.224191608045
-0.2353519660825
-0.246363670774
-0.257219766891
-0.2679133974895
-0.278437808244
-0.288786351711
-0.298952491529
-0.308929806545
-0.3187119948745
-0.3282928778765
-0.3376664040605
-0.3468266529065
-0.3557678386045
-0.3644843137105
-0.372970572712
-0.3812212555055
-0.3892311507835
-0.396995199324
-0.4045084971875
-0.411766298814
-0.418764020021
-0.4254972408975
-0.4319617085965
-0.438153340022
-0.444068224407
-0.449702625783
-0.4550529853425
-0.460115923683
-0.464888242944
-0.469366928827
-0.4735491524975
-0.4774322723735
-0.481013835793
-0.4842915805645
-0.4872634363935
-0.489927526192
-0.4922821672645
-0.494325872369
-0.496057350657
-0.4974755084905
-0.4985794501305
-0.499368478303
-0.4998420946415
-0.5
-0.4998420946415
-0.499368478303
-0.4985794501305
-0.4974755084905
-0.496057350657
-0.494325872369
-0.4922821672645
-0.489927526192
-0.4872634363935
-0.4842915805645
-0.481013835793
-0.4774322723735
-0.4735491524975
-0.469366928827
-0.464888242944
-0.460115923683
-0.4550529853425
-0.449702625783
-0.444068224407
-0.438153340022
-0.4319617085965
-0.4254972408975
-0.418764020021
-0.411766298814
-0.4045084971875
-0.396995199324
-0.3892311507835
-0.3812212555055
-0.372970572712
-0.3644843137105
-0.3557678386045
-0.3468266529065
-0.3376664040605
-0.3282928778765
-0.3187119948745
-0.308929806545
-0.298952491529
-0.288786351711
-0.278437808244
-0.2679133974895
-0.257219766891
-0.246363670774
-0.2353519660825
-0.224191608045
-0.2128896457825
-0.201453217857
-0.189889547761
-0.1782059393565
-0.1664097722615
-0.1545084971875
-0.142509631235
-0.130420753145
-0.118249498512
-0.106003554961
-0.093690657293
-0.0813185825975
-0.0688951453425
-0.0564281924365
-0.04392559827535
-0.03139525976465
-0.01884509133495
-0.0062830199417
0.0062830199417
0.01884509133495
0.03139525976465
0.04392559827535
0.0564281924365
0.0688951453425
0.0813185825975
0.093690657293
0.106003554961
0.118249498512
0.130420753145
0.142509631235
0.1545084971875
0.1664097722615
0.1782059393565
0.189889547761
0.201453217857
0.2128896457825
0.224191608045
0.2353519660825
0.246363670774
0.257219766891
0.2679133974895
0.278437808244
0.288786351711
0.298952491529
0.308929806545
0.3187119948745
0.3282928778765
0.3376664040605
0.3468266529065
0.3557678386045
0.3644843137105
0.372970572712
0.3812212555055
0.3892311507835
0.396995199324
0.4045084971875
0.411766298814
0.418764020021
0.4254972408975
0.4319617085965
0.438153340022
0.444068224407
0.449702625783
0.4550529853425
0.460115923683
0.464888242944
0.469366928827
0.4735491524975
0.4774322723735
0.481013835793
0.4842915805645
0.4872634363935
0.489927526192
0.4922821672645
0.494325872369
0.496057350657
0.4974755084905
0.4985794501305
0.499368478303
0.4998420946415
0.5
0.4998420946415
0.499368478303
0.4985794501305
0.4974755084905
0.496057350657
0.494325872369
0.4922821672645
0.489927526192
0.4872634363935
0.4842915805645
0.481013835793
0.4774322723735
0.4735491524975
0.469366928827
0.464888242944
0.460115923683
0.4550529853425
0.449702625783
0.444068224407
0.438153340022
0.4319617085965
0.4254972408975
0.418764020021
0.411766298814
0.4045084971875
0.396995199324
0.3892311507835
0.3812212555055
0.372970572712
0.3644843137105
0.3557678386045
0.3468266529065
0.3376664040605
0.3282928778765
0.3187119948745
0.308929806545
0.298952491529
0.288786351711
0.278437808244
0.2679133974895
0.257219766891
0.246363670774
0.2353519660825
0.224191608045
0.2128896457825
0.201453217857
0.189889547761
0.1782059393565
0.1664097722615
0.1545084971875
0.142509631235
0.130420753145
0.118249498512
0.106003554961
0.093690657293
0.0813185825975
0.0688951453425
0.0564281924365
0.04392559827535
0.03139525976465
0.01884509133495
0.0062830199417
-0.0062830199417
-0.01884509133495
-0.03139525976465
-0.04392559827535
-0.0564281924365
-0.0688951453425
-0.0813185825975
-0.093690657293
-0.106003554961
-0.118249498512
-0.130420753145
-0.142509631235
-0.1545084971875
-0.1664097722615
-0.1782059393565
-0.189889547761
-0.201453217857
-0.2128896457825
-0.224191608045
-0.2353519660825
-0.246363670774
-0.257219766891
-0.2679133974895
-0.278437808244
-0.288786351711
-0.298952491529
-0.308929806545
-0.3187119948745
-0.3282928778765
-0.3376664040605
-0.3468266529065
-0.3557678386045
-0.3644843137105
-0.372970572712
-0.3812212555055
-0.3892311507835
-0.396995199324
-0.4045084971875
-0.411766298814
-0.418764020021
-0.4254972408975
-0.4319617085965
-0.438153340022
-0.444068224407
-0.449702625783
-0.4550529853425
-0.460115923683
-0.464888242944
-0.469366928827
-0.4735491524975
-0.4774322723735
-0.481013835793
-0.4842915805645
-0.4872634363935
-0.489927526192
-0.4922821672645
-0.494325872369
-0.496057350657
-0.4974755084905
-0.4985794501305
-0.499368478303
-0.4998420946415
-0.5
-0.4998420946415
-0.499368478303
-0.4985794501305
-0.4974755084905
-0.496057350657
-0.494325872369
-0.4922821672645
-0.489927526192
-0.4872634363935
-0.4842915805645
-0.481013835793
-0.4774322723735
-0.4735491524975
-0.469366928827
-0.464888242944
-0.460115923683
-0.4550529853425
-0.449702625783
-0.444068224407
-0.438153340022
-0.4319617085965
-0.4254972408975
-0.418764020021
-0.411766298814
-0.4045084971875
-0.396995199324
-0.3892311507835
-0.3812212555055
-0.372970572712
-0.3644843137105
-0.3557678386045
-0.3468266529065
-0.3376664040605
-0.3282928778765
-0.3187119948745
-0.308929806545
-0.298952491529
-0.288786351711
-0.278437808244
-0.2679133974895
-0.257219766891
-0.246363670774
-0.2353519660825
-0.224191608045
-0.2128896457825
-0.201453217857
-0.189889547761
-0.1782059393565
-0.1664097722615
-0.1545084971875
-0.142509631235
-0.130420753145
-0.118249498512
-0.106003554961
-0.093690657293
-0.0813185825975
-0.0688951453425
-0.0564281924365
-0.04392559827535
-0.03139525976465
-0.01884509133495
-0.0062830199417
0.0062830199417
0.01884509133495
0.03139525976465
0.04392559827535
0.0564281924365
0.0688951453425
0.0813185825975
0.093690657293
0.106003554961
0.118249498512
0.130420753145
0.142509631235
0.1545084971875
0.1664097722615
0.1782059393565
0.189889547761
0.201453217857
0.2128896457825
0.224191608045
0.2353519660825
0.246363670774
0.257219766891
0.2679133974895
0.278437808244
0.288786351711
0.298952491529
0.308929806545
0.3187119948745
0.3282928778765
0.3376664040605
0.3468266529065
0.3557678386045
0.3644843137105
0.372970572712
0.3812212555055
0.3892311507835
0.396995199324
0.4045084971875
0.411766298814
0.418764020021
0.4254972408975
0.4319617085965
0.438153340022
0.444068224407
0.449702625783
0.4550529853425
0.460115923683
0.464888242944
0.469366928827
0.4735491524975
0.4774322723735
0.481013835793
0.4842915805645
0.4872634363935
0.489927526192
0.4922821672645
0.494325872369
0.496057350657
0.4974755084905
0.4985794501305
0.499368478303
0.4998420946415
0.5
0.4998420946415
0.499368478303
0.4985794501305
0.4974755084905
0.496057350657
0.494325872369
0.4922821672645
0.489927526192
0.4872634363935
0.4842915805645
0.481013835793
0.4774322723735
0.4735491524975
0.469366928827
0.464888242944
0.460115923683
0.4550529853425
0.449702625783
0.444068224407
0.438153340022
0.4319617085965
0.4254972408975
0.418764020021
0.411766298814
0.4045084971875
0.396995199324
0.3892311507835
0.3812212555055
0.372970572712
0.3644843137105
0.3557678386045
0.3468266529065
0.3376664040605
0.3282928778765
0.3187119948745
0.308929806545
0.298952491529
0.288786351711
0.278437808244
0.2679133974895
0.257219766891
0.246363670774
0.2353519660825
0.224191608045
0.2128896457825
0.201453217857
0.189889547761
0.1782059393565
0.1664097722615
0.1545084971875
0.142509631235
0.130420753145
0.118249498512
0.106003554961
0.093690657293
0.0813185825975
0.0688951453425
0.0564281924365
0.04392559827535
0.03139525976465
0.01884509133495
0.0062830199417
-0.0062830199417
-0.01884509133495
-0.03139525976465
-0.04392559827535
-0.0564281924365
-0.0688951453425
-0.0813185825975
-0.093690657293
-0.106003554961
-0.118249498512
-0.130420753145
-0.142509631235
-0.1545084971875
-0.1664097722615
-0.1782059393565
-0.189889547761
-0.201453217857
-0.2128896457825
-0.224191608045
-0.2353519660825
-0.246363670774
-0.257219766891
-0.2679133974895
-0.278437808244
-0.288786351711
-0.298952491529
-0.308929806545
-0.3187119948745
-0.3282928778765
-0.3376664040605
-0.3468266529065
-0.3557678386045
-0.3644843137105
-0.372970572712
-0.3812212555055
-0.3892311507835
-0.396995199324
-0.4045084971875
-0.411766298814
-0.418764020021
-0.4254972408975
-0.4319617085965
-0.438153340022
-0.444068224407
-0.449702625783
-0.4550529853425
-0.460115923683
-0.464888242944
-0.469366928827
-0.4735491524975
-0.4774322723735
-0.481013835793
-0.4842915805645
-0.4872634363935
-0.489927526192
-0.4922821672645
-0.494325872369
-0.496057350657
-0.4974755084905
-0.4985794501305
-0.499368478303
-0.4998420946415
-0.5
-0.4998420946415
-0.499368478303
-0.4985794501305
-0.4974755084905
-0.496057350657
-0.494325872369
-0.4922821672645
-0.489927526192
-0.4872634363935
-0.4842915805645
-0.481013835793
-0.4774322723735
-0.4735491524975
-0.469366928827
-0.464888242944
-0.460115923683
-0.4550529853425
-0.449702625783
-0.444068224407
-0.438153340022
-0.4319617085965
-0.4254972408975
-0.418764020021
-0.411766298814
-0.4045084971875
-0.396995199324
-0.3892311507835
-0.3812212555055
-0.372970572712
-0.3644843137105
-0.3557678386045
-0.3468266529065
-0.3376664040605
-0.3282928778765
-0.3187119948745
-0.308929806545
-0.298952491529
-0.288786351711
-0.278437808244
-0.2679133974895
-0.257219766891
-0.246363670774
-0.2353519660825
-0.224191608045
-0.2128896457825
-0.201453217857
-0.189889547761
-0.1782059393565
-0.1664097722615
-0.1545084971875
-0.142509631235
-0.130420753145
-0.118249498512
-0.106003554961
-0.093690657293
-0.0813185825975
-0.0688951453425
-0.0564281924365
-0.04392559827535
-0.03139525976465
-0.01884509133495
-0.00628301994165
0.0062830199417
0.01884509133495
0.03139525976465
0.04392559827535
0.0564281924365
0.0688951453425
0.0813185825975
0.093690657293
0.106003554961
0.118249498512
0.130420753145
0.142509631235
0.1545084971875
0.1664097722615
0.1782059393565
0.189889547761
0.201453217857
0.2128896457825
0.224191608045
0.2353519660825
0.246363670774
0.257219766891
0.2679133974895
0.278437808244
0.288786351711
0.298952491529
0.308929806545
0.3187119948745
0.3282928778765
0.3376664040605
0.3468266529065
0.3557678386045
0.3644843137105
0.372970572712
0.3812212555055
0.3892311507835
0.396995199324
0.4045084971875
0.411766298814
0.418764020021
0.4254972408975
0.4319617085965
0.438153340022
0.444068224407
0.449702625783
0.4550529853425
0.460115923683
0.464888242944
0.469366928827
0.4735491524975
0.4774322723735
0.481013835793
0.4842915805645
0.4872634363935
0.489927526192
0.4922821672645
0.494325872369
0.496057350657
0.4974755084905
0.4985794501305
0.499368478303
0.4998420946415
0.5
0.4998420946415
0.499368478303
0.4985794501305
0.4974755084905
0.496057350657
0.494325872369
0.4922821672645
0.489927526192
0.4872634363935
0.4842915805645
0.481013835793
0.4774322723735
0.4735491524975
0.469366928827
0.464888242944
0.460115923683
0.4550529853425
0.449702625783
0.444068224407
0.438153340022
0.4319617085965
0.4254972408975
0.418764020021
0.411766298814
0.4045084971875
0.396995199324
0.3892311507835
0.3812212555055
0.372970572712
0.3644843137105
0.3557678386045
0.3468266529065
0.3376664040605
0.3282928778765
0.3187119948745
0.308929806545
0.298952491529
0.288786351711
0.278437808244
0.2679133974895
0.257219766891
0.246363670774
0.2353519660825
0.224191608045
0.2128896457825
0.201453217857
0.189889547761
0.1782059393565
0.1664097722615
0.1545084971875
0.142509631235
0.130420753145
0.118249498512
0.106003554961
0.093690657293
0.0813185825975
0.0688951453425
0.0564281924365
0.04392559827535
0.03139525976465
0.01884509133495
0.0062830199417
-0.0062830199417
-0.01884509133495
-0.03139525976465
-0.04392559827535
-0.0564281924365
-0.0688951453425
-0.0813185825975
-0.093690657293
-0.106003554961
-0.118249498512
-0.130420753145
-0.142509631235
-0.1545084971875
-0.1664097722615
-0.1782059393565
-0.189889547761
-0.201453217857
-0.2128896457825
-0.224191608045
-0.2353519660825
-0.246363670774
-0.257219766891
-0.2679133974895
-0.278437808244
-0.288786351711
-0.298952491529
-0.308929806545
-0.3187119948745
-0.3282928778765
-0.3376664040605
-0.3468266529065
-0.3557678386045
-0.3644843137105
-0.372970572712
-0.3812212555055
-0.3892311507835
-0.396995199324
-0.4045084971875
-0.411766298814
-0.418764020021
-0.4254972408975
-0.4319617085965
-0.438153340022
-0.444068224407
-0.449702625783
-0.4550529853425
-0.460115923683
-0.464888242944
-0.469366928827
-0.4735491524975
-0.4774322723735
-0.481013835793
-0.4842915805645
-0.4872634363935
-0.489927526192
-0.4922821672645
-0.494325872369
-0.496057350657
-0.4974755084905
-0.4985794501305
-0.499368478303
-0.4998420946415
-0.5
-0.4998420946415
-0.499368478303
-0.4985794501305
-0.4974755084905
-0.496057350657
-0.494325872369
-0.4922821672645
-0.489927526192
-0.4872634363935
-0.4842915805645
-0.481013835793
-0.4774322723735
-0.4735491524975
-0.469366928827
-0.464888242944
-0.460115923683
-0.4550529853425
-0.449702625783
-0.444068224407
-0.438153340022
-0.4319617085965
-0.4254972408975
-0.418764020021
-0.411766298814
-0.4045084971875
-0.396995199324
-0.3892311507835
-0.3812212555055
-0.372970572712
-0.3644843137105
-0.3557678386045
-0.3468266529065
-0.3376664040605
-0.3282928778765
-0.3187119948745
-0.308929806545
-0.298952491529
-0.288786351711
-0.278437808244
-0.2679133974895
-0.257219766891
-0.246363670774
-0.2353519660825
-0.224191608045
-0.2128896457825
-0.201453217857
-0.189889547761
-0.1782059393565
-0.1664097722615
-0.1545084971875
-0.142509631235
-0.130420753145
-0.118249498512
-0.106003554961
-0.093690657293
-0.0813185825975
-0.0688951453425
-0.0564281924365
-0.04392559827535
-0.03139525976465
-0.01884509133495
-0.00628301994165
0.0062830199417
0.01884509133495
0.03139525976465
0.04392559827535
0.0564281924365
0.0688951453425
0.0813185825975
0.093690657293
0.106003554961
0.118249498512
0.130420753145
0.142509631235
0.1545084971875
0.1664097722615
0.1782059393565
0.189889547761
0.201453217857
0.2128896457825
0.224191608045
0.2353519660825
0.246363670774
0.257219766891
0.2679133974895
0.278437808244
0.288786351711
0.298952491529
0.308929806545
0.3187119948745
0.3282928778765
0.3376664040605
0.3468266529065
0.3557678386045
0.3644843137105
0.372970572712
0.3812212555055
0.3892311507835
0.396995199324
0.4045084971875
0.411766298814
0.418764020021
0.4254972408975
0.4319617085965
0.438153340022
0.444068224407
0.449702625783
0.4550529853425
0.460115923683
0.464888242944
0.469366928827
0.4735491524975
0.4774322723735
0.481013835793
0.4842915805645
0.4872634363935
0.489927526192
0.4922821672645
0.494325872369
0.496057350657
0.4974755084905
0.4985794501305
0.499368478303
0.4998420946415
0.5
0.4998420946415
0.499368478303
0.4985794501305
0.4974755084905
0.496057350657
0.494325872369
0.4922821672645
0.489927526192
0.4872634363935
0.4842915805645
0.481013835793
0.4774322723735
0.4735491524975
0.469366928827
0.464888242944
0.460115923683
0.4550529853425
0.449702625783
0.444068224407
0.438153340022
0.4319617085965
0.4254972408975
0.418764020021
0.411766298814
0.4045084971875
0.396995199324
0.3892311507835
0.3812212555055
0.372970572712
0.3644843137105
0.3557678386045
0.3468266529065
0.3376664040605
0.3282928778765
0.3187119948745
0.308929806545
0.298952491529
0.288786351711
0.278437808244
0.2679133974895
0.257219766891
0.246363670774
0.2353519660825
0.224191608045
0.2128896457825
0.201453217857
0.189889547761
0.1782059393565
0.1664097722615
0.1545084971875
0.142509631235
0.130420753145
0.118249498512
0.106003554961
0.093690657293
0.0813185825975
0.0688951453425
0.0564281924365
0.04392559827535
0.03139525976465
0.01884509133495
0.0062830199417
-0.0062830199417
-0.01884509133495
-0.03139525976465
-0.04392559827535
-0.0564281924365
-0.0688951453425
-0.0813185825975
-0.093690657293
-0.106003554961
-0.118249498512
-0.130420753145
-0.142509631235
-0.1545084971875
-0.1664097722615
-0.1782059393565
-0.189889547761
-0.201453217857
-0.2128896457825
-0.224191608045
-0.2353519660825
-0.246363670774
-0.257219766891
-0.2679133974895
-0.278437808244
-0.288786351711
-0.298952491529
-0.308929806545
-0.3187119948745
-0.3282928778765
-0.3376664040605
-0.3468266529065
-0.3557678386045
-0.3644843137105
-0.372970572712
-0.3812212555055
-0.3892311507835
-0.396995199324
-0.4045084971875
-0.411766298814
-0.418764020021
-0.4254972408975
-0.4319617085965
-0.438153340022
-0.444068224407
-0.449702625783
-0.4550529853425
-0.460115923683
-0.464888242944
-0.469366928827
-0.4735491524975
-0.4774322723735
-0.481013835793
-0.4842915805645
-0.4872634363935
-0.489927526192
-0.4922821672645
-0.494325872369
-0.496057350657
-0.4974755084905
-0.4985794501305
-0.499368478303
-0.4998420946415
-0.5
-0.4998420946415
-0.499368478303
-0.4985794501305
-0.4974755084905
-0.496057350657
-0.494325872369
-0.4922821672645
-0.489927526192
-0.4872634363935
-0.4842915805645
-0.481013835793
-0.4774322723735
-0.4735491524975
-0.469366928827
-0.464888242944
-0.460115923683
-0.4550529853425
-0.449702625783
-0.444068224407
-0.438153340022
-0.4319617085965
-0.4254972408975
-0.418764020021
-0.411766298814
-0.4045084971875
-0.396995199324
-0.3892311507835
-0.3812212555055
-0.372970572712
-0.3644843137105
-0.3557678386045
-0.3468266529065
-0.3376664040605
-0.3282928778765
-0.3187119948745
-0.308929806545
-0.298952491529
-0.288786351711
-0.278437808244
-0.2679133974895
-0.257219766891
-0.246363670774
-0.2353519660825
-0.224191608045
-0.2128896457825
-0.201453217857
-0.189889547761
-0.1782059393565
-0.1664097722615
-0.1545084971875
-0.142509631235
-0.130420753145
-0.118249498512
-0.106003554961
-0.093690657293
-0.0813185825975
-0.0688951453425
-0.0564281924365
-0.04392559827535
-0.03139525976465
-0.01884509133495
-0.00628301994165
0.0062830199417
0.01884509133495
0.03139525976465
0.04392559827535
0.0564281924365
0.0688951453425
0.0813185825975
0.093690657293
0.106003554961
0.118249498512
0.130420753145
0.142509631235
0.1545084971875
0.1664097722615
0.1782059393565
0.189889547761
0.201453217857
0.2128896457825
0.224191608045
0.2353519660825
0.246363670774
0.257219766891
0.2679133974895
0.278437808244
0.288786351711
0.298952491529
0.308929806545
0.3187119948745
0.3282928778765
0.3376664040605
0.3468266529065
0.3557678386045
0.3644843137105
0.372970572712
0.3812212555055
0.3892311507835
0.396995199324
0.4045084971875
0.411766298814
0.418764020021
0.4254972408975
0.4319617085965
0.438153340022
0.444068224407
0.449702625783
0.4550529853425
0.460115923683
0.464888242944
0.469366928827
0.4735491524975
0.4774322723735
0.481013835793
0.4842915805645
0.4872634363935
0.489927526192
0.4922821672645
0.494325872369
0.496057350657
0.4974755084905
0.4985794501305
0.499368478303
0.4998420946415
0.5
0.4998420946415
0.499368478303
0.4985794501305
0.4974755084905
0.496057350657
0.494325872369
0.4922821672645
0.489927526192
0.4872634363935
0.4842915805645
0.481013835793
0.4774322723735
0.4735491524975
0.469366928827
0.464888242944
0.460115923683
0.4550529853425
0.449702625783
0.444068224407
0.438153340022
0.4319617085965
0.4254972408975
0.418764020021
0.411766298814
0.4045084971875
0.396995199324
0.3892311507835
0.3812212555055
0.372970572712
0.3644843137105
0.3557678386045
0.3468266529065
0.3376664040605
0.3282928778765
0.3187119948745
0.308929806545
0.298952491529
0.288786351711
0.278437808244
0.2679133974895
0.257219766891
0.246363670774
0.2353519660825
0.224191608045
0.2128896457825
0.201453217857
0.189889547761
0.1782059393565
0.1664097722615
0.1545084971875
0.142509631235
0.130420753145
0.118249498512
0.106003554961
0.093690657293
0.0813185825975
0.0688951453425
0.0564281924365
0.04392559827535
0.03139525976465
0.01884509133495
0.0062830199417
-0.0062830199417
-0.01884509133495
-0.03139525976465
-0.04392559827535
-0.0564281924365
-0.0688951453425
-0.0813185825975
-0.093690657293
-0.106003554961
-0.118249498512
-0.130420753145
-0.142509631235
-0.1545084971875
-0.1664097722615
-0.1782059393565
-0.189889547761
-0.201453217857
-0.2128896457825
-0.224191608045
-0.2353519660825
-0.246363670774
-0.257219766891
-0.2679133974895
-0.278437808244
-0.288786351711
-0.298952491529
-0.308929806545
-0.3187119948745
-0.3282928778765
-0.3376664040605
-0.3468266529065
-0.3557678386045
-0.3644843137105
-0.372970572712
-0.3812212555055
-0.3892311507835
-0.396995199324
-0.4045084971875
-0.411766298814
-0.418764020021
-0.4254972408975
-0.4319617085965
-0.438153340022
-0.444068224407
-0.449702625783
-0.4550529853425
-0.460115923683
-0.464888242944
-0.469366928827
-0.4735491524975
-0.4774322723735
-0.481013835793
-0.4842915805645
-0.4872634363935
-0.489927526192
-0.4922821672645
-0.494325872369
-0.496057350657
-0.4974755084905
-0.4985794501305
-0.499368478303
-0.4998420946415
-0.5
-0.4998420946415
-0.499368478303
-0.4985794501305
-0.4974755084905
-0.496057350657
-0.494325872369
-0.4922821672645
-0.489927526192
-0.4872634363935
-0.4842915805645
-0.481013835793
-0.4774322723735
-0.4735491524975
-0.469366928827
-0.464888242944
-0.460115923683
-0.4550529853425
-0.449702625783
-0.444068224407
-0.438153340022
-0.4319617085965
-0.4254972408975
-0.418764020021
-0.411766298814
-0.4045084971875
-0.396995199324
-0.3892311507835
-0.3812212555055
-0.372970572712
-0.3644843137105
-0.3557678386045
-0.3468266529065
-0.3376664040605
-0.3282928778765
-0.3187119948745
-0.308929806545
-0.298952491529
-0.288786351711
-0.278437808244
-0.2679133974895
-0.257219766891
-0.246363670774
-0.2353519660825
-0.224191608045
-0.2128896457825
-0.201453217857
-0.189889547761
-0.1782059393565
-0.1664097722615
-0.1545084971875
-0.142509631235
-0.130420753145
-0.118249498512
-0.106003554961
-0.093690657293
-0.0813185825975
-0.0688951453425
-0.0564281924365
-0.04392559827535
-0.03139525976465
-0.01884509133495
-0.00628301994165
0.0062830199417
0.01884509133495
0.03139525976465
0.04392559827535
0.0564281924365
0.0688951453425
0.0813185825975
0.093690657293
0.106003554961
0.118249498512
0.130420753145
0.142509631235
0.1545084971875
0.1664097722615
0.1782059393565
0.189889547761
0.201453217857
0.2128896457825
0.224191608045
0.2353519660825
0.246363670774
0.257219766891
0.2679133974895
0.278437808244
0.288786351711
0.298952491529
0.308929806545
0.3187119948745
0.3282928778765
0.3376664040605
0.3468266529065
0.3557678386045
0.3644843137105
0.372970572712
0.3812212555055
0.3892311507835
0.396995199324
0.4045084971875
0.411766298814
0.418764020021
0.4254972408975
0.4319617085965
0.438153340022
0.444068224407
0.449702625783
0.4550529853425
0.460115923683
0.464888242944
0.469366928827
0.4735491524975
0.4774322723735
0.481013835793
0.4842915805645
0.4872634363935
0.489927526192
0.4922821672645
0.494325872369
0.496057350657
0.4974755084905
0.4985794501305
0.499368478303
0.4998420946415
0.5
0.4998420946415
0.499368478303
0.4985794501305
0.4974755084905
0.496057350657
0.494325872369
0.4922821672645
0.489927526192
0.4872634363935
0.4842915805645
0.481013835793
0.4774322723735
0.4735491524975
0.469366928827
0.464888242944
0.460115923683
0.4550529853425
0.449702625783
0.444068224407
0.438153340022
0.4319617085965
0.4254972408975
0.418764020021
0.411766298814
0.4045084971875
0.396995199324
0.3892311507835
0.3812212555055
0.372970572712
0.3644843137105
0.3557678386045
0.3468266529065
0.3376664040605
0.3282928778765
0.3187119948745
0.308929806545
0.298952491529
0.288786351711
0.278437808244
0.2679133974895
0.257219766891
0.246363670774
0.2353519660825
0.224191608045
0.2128896457825
0.201453217857
0.189889547761
0.1782059393565
0.1664097722615
0.1545084971875
0.142509631235
0.130420753145
0.118249498512
0.106003554961
0.093690657293
0.0813185825975
0.0688951453425
0.0564281924365
0.04392559827535
0.03139525976465
0.01884509133495
0.0062830199417
-0.0062830199417
-0.01884509133495
-0.03139525976465
-0.0439255982754
-0.0564281924365
-0.0688951453425
-0.0813185825975
-0.093690657293
-0.106003554961
-0.118249498512
-0.130420753145
-0.142509631235
-0.1545084971875
-0.1664097722615
-0.1782059393565
-0.189889547761
-0.201453217857
-0.2128896457825
-0.224191608045
-0.2353519660825
-0.246363670774
-0.257219766891
-0.2679133974895
-0.278437808244
-0.288786351711
-0.298952491529
-0.308929806545
-0.3187119948745
-0.3282928778765
-0.3376664040605
-0.3468266529065
-0.3557678386045
-0.3644843137105
-0.372970572712
-0.3812212555055
-0.3892311507835
-0.396995199324
-0.4045084971875
-0.411766298814
-0.418764020021
-0.4254972408975
-0.4319617085965
-0.438153340022
-0.444068224407
-0.449702625783
-0.4550529853425
-0.460115923683
-0.464888242944
-0.469366928827
-0.4735491524975
-0.4774322723735
-0.481013835793
-0.4842915805645
-0.4872634363935
-0.489927526192
-0.4922821672645
-0.494325872369
-0.496057350657
-0.4974755084905
-0.4985794501305
-0.499368478303
-0.4998420946415
-0.5
-0.4998420946415
-0.499368478303
-0.4985794501305
-0.4974755084905
-0.496057350657
-0.494325872369
-0.4922821672645
-0.489927526192
-0.4872634363935
-0.4842915805645
-0.481013835793
-0.4774322723735
-0.4735491524975
-0.469366928827
-0.464888242944
-0.460115923683
-0.4550529853425
-0.449702625783
-0.444068224407
-0.438153340022
-0.4319617085965
-0.4254972408975
-0.418764020021
-0.411766298814
-0.4045084971875
-0.396995199324
-0.3892311507835
-0.3812212555055
-0.372970572712
-0.3644843137105
-0.3557678386045
-0.3468266529065
-0.3376664040605
-0.3282928778765
-0.3187119948745
-0.308929806545
-0.298952491529
-0.288786351711
-0.278437808244
-0.2679133974895
-0.2572197668905
-0.246363670774
-0.2353519660825
-0.224191608045
-0.2128896457825
-0.201453217857
-0.189889547761
-0.1782059393565
-0.1664097722615
-0.1545084971875
-0.142509631235
-0.130420753145
-0.118249498512
-0.106003554961
-0.093690657293
-0.0813185825975
-0.0688951453425
-0.0564281924365
-0.04392559827535
-0.03139525976465
-0.01884509133495
-0.00628301994165
0.0062830199417
0.01884509133495
0.03139525976465
0.04392559827535
0.0564281924365
0.0688951453425
0.0813185825975
0.093690657293
0.106003554961
0.118249498512
0.130420753145
0.142509631235
0.1545084971875
0.1664097722615
0.1782059393565
0.189889547761
0.201453217857
0.2128896457825
0.224191608045
0.2353519660825
0.246363670774
0.257219766891
0.2679133974895
0.278437808244
0.288786351711
0.298952491529
0.308929806545
0.3187119948745
0.3282928778765
0.3376664040605
0.3468266529065
0.3557678386045
0.3644843137105
0.372970572712
0.3812212555055
0.3892311507835
0.396995199324
0.4045084971875
0.411766298814
0.418764020021
0.4254972408975
0.4319617085965
0.438153340022
0.444068224407
0.449702625783
0.4550529853425
0.460115923683
0.464888242944
0.469366928827
0.4735491524975
0.4774322723735
0.481013835793
0.4842915805645
0.4872634363935
0.489927526192
0.4922821672645
0.494325872369
0.496057350657
0.4974755084905
0.4985794501305
0.499368478303
0.4998420946415
0.5
0.4998420946415
0.499368478303
0.4985794501305
0.4974755084905
0.496057350657
0.494325872369
0.4922821672645
0.489927526192
0.4872634363935
0.4842915805645
0.481013835793
0.4774322723735
0.4735491524975
0.469366928827
0.464888242944
0.460115923683
0.4550529853425
0.449702625783
0.444068224407
0.438153340022
0.4319617085965
0.4254972408975
0.418764020021
0.411766298814
0.4045084971875
0.396995199324
0.3892311507835
0.3812212555055
0.372970572712
0.3644843137105
0.3557678386045
0.3468266529065
0.3376664040605
0.3282928778765
0.3187119948745
0.308929806545
0.298952491529
0.288786351711
0.278437808244
0.2679133974895
0.257219766891
0.246363670774
0.2353519660825
0.224191608045
0.2128896457825
0.201453217857
0.189889547761
0.1782059393565
0.1664097722615
0.1545084971875
0.142509631235
0.130420753145
0.118249498512
0.106003554961
0.093690657293
0.0813185825975
0.0688951453425
0.0564281924365
0.04392559827535
0.03139525976465
0.01884509133495
0.00628301994165
-0.0062830199417
-0.01884509133495
-0.03139525976465
-0.04392559827535
-0.0564281924365
-0.0688951453425
-0.0813185825975
-0.093690657293
-0.106003554961
-0.118249498512
-0.130420753145
-0.142509631235
-0.1545084971875
-0.1664097722615
-0.1782059393565
-0.189889547761
-0.201453217857
-0.2128896457825
-0.224191608045
-0.2353519660825
-0.246363670774
-0.257219766891
-0.2679133974895
-0.278437808244
-0.288786351711
-0.298952491529
-0.308929806545
-0.3187119948745
-0.3282928778765
-0.3376664040605
-0.3468266529065
-0.3557678386045
-0.3644843137105
-0.372970572712
-0.3812212555055
-0.3892311507835
-0.396995199324
-0.4045084971875
-0.411766298814
-0.418764020021
-0.4254972408975
-0.4319617085965
-0.438153340022
-0.444068224407
-0.449702625783
-0.4550529853425
-0.460115923683
-0.464888242944
-0.469366928827
-0.4735491524975
-0.4774322723735
-0.481013835793
-0.4842915805645
-0.4872634363935
-0.489927526192
-0.4922821672645
-0.494325872369
-0.496057350657
-0.4974755084905
-0.4985794501305
-0.499368478303
-0.4998420946415
-0.5
-0.4998420946415
-0.499368478303
-0.4985794501305
-0.4974755084905
-0.496057350657
-0.494325872369
-0.4922821672645
-0.489927526192
-0.4872634363935
-0.4842915805645
-0.481013835793
-0.4774322723735
-0.4735491524975
-0.469366928827
-0.464888242944
-0.460115923683
-0.4550529853425
-0.449702625783
-0.444068224407
-0.438153340022
-0.4319617085965
-0.4254972408975
-0.418764020021
-0.411766298814
-0.4045084971875
-0.396995199324
-0.3892311507835
-0.3812212555055
-0.372970572712
-0.3644843137105
-0.3557678386045
-0.3468266529065
-0.3376664040605
-0.3282928778765
-0.3187119948745
-0.308929806545
-0.298952491529
-0.288786351711
-0.278437808244
-0.2679133974895
-0.257219766891
-0.246363670774
-0.2353519660825
-0.224191608045
-0.2128896457825
-0.201453217857
-0.189889547761
-0.1782059393565
-0.1664097722615
-0.1545084971875
-0.142509631235
-0.130420753145
-0.118249498512
-0.106003554961
-0.093690657293
-0.0813185825975
-0.0688951453425
-0.0564281924365
-0.04392559827535
-0.03139525976465
-0.01884509133495
-0.0062830199417
0.00628301994165
0.01884509133495
0.03139525976465
0.04392559827535
0.0564281924365
0.0688951453425
0.0813185825975
0.093690657293
0.106003554961
0.118249498512
0.130420753145
0.142509631235
0.1545084971875
0.1664097722615
0.1782059393565
0.189889547761
0.201453217857
0.2128896457825
0.224191608045
0.2353519660825
0.246363670774
0.257219766891
0.2679133974895
0.278437808244
0.288786351711
0.298952491529
0.308929806545
0.3187119948745
0.3282928778765
0.3376664040605
0.3468266529065
0.3557678386045
0.3644843137105
0.372970572712
0.3812212555055
0.3892311507835
0.396995199324
0.4045084971875
0.411766298814
0.418764020021
0.4254972408975
0.4319617085965
0.438153340022
0.444068224407
0.449702625783
0.4550529853425
0.460115923683
0.464888242944
0.469366928827
0.4735491524975
0.4774322723735
0.481013835793
0.4842915805645
0.4872634363935
0.489927526192
0.4922821672645
0.494325872369
0.496057350657
0.4974755084905
0.4985794501305
0.499368478303
0.4998420946415
0.5
0.4998420946415
0.499368478303
0.4985794501305
0.4974755084905
0.496057350657
0.494325872369
0.4922821672645
0.489927526192
0.4872634363935
0.4842915805645
0.481013835793
0.4774322723735
0.4735491524975
0.469366928827
0.464888242944
0.460115923683
0.4550529853425
0.449702625783
0.444068224407
0.438153340022
0.4319617085965
0.4254972408975
0.418764020021
0.411766298814
0.4045084971875
0.396995199324
0.3892311507835
0.3812212555055
0.372970572712
0.3644843137105
0.3557678386045
0.3468266529065
0.3376664040605
0.3282928778765
0.3187119948745
0.308929806545
0.298952491529
0.288786351711
0.278437808244
0.2679133974895
0.257219766891
0.246363670774
0.2353519660825
0.224191608045
0.2128896457825
0.201453217857
0.189889547761
0.1782059393565
0.1664097722615
0.1545084971875
0.142509631235
0.130420753145
0.118249498512
0.106003554961
0.093690657293
0.0813185825975
0.0688951453425
0.0564281924365
0.04392559827535
0.03139525976465
0.01884509133495
0.0062830199417
-0.0062830199417
-0.01884509133495
-0.03139525976465
-0.0439255982754
-0.0564281924365
-0.0688951453425
-0.0813185825975
-0.093690657293
-0.106003554961
-0.118249498512
-0.130420753145
-0.142509631235
-0.1545084971875
-0.1664097722615
-0.1782059393565
-0.189889547761
-0.201453217857
-0.2128896457825
-0.224191608045
-0.2353519660825
-0.246363670774
-0.257219766891
-0.2679133974895
-0.278437808244
-0.288786351711
-0.298952491529
-0.308929806545
-0.3187119948745
-0.3282928778765
-0.3376664040605
-0.3468266529065
-0.3557678386045
-0.3644843137105
-0.372970572712
-0.3812212555055
-0.3892311507835
-0.396995199324
-0.4045084971875
-0.411766298814
-0.418764020021
-0.4254972408975
-0.4319617085965
-0.438153340022
-0.444068224407
-0.449702625783
-0.4550529853425
-0.460115923683
-0.464888242944
-0.469366928827
-0.4735491524975
-0.4774322723735
-0.481013835793
-0.4842915805645
-0.4872634363935
-0.489927526192
-0.4922821672645
-0.494325872369
-0.496057350657
-0.4974755084905
-0.4985794501305
-0.499368478303
-0.4998420946415
-0.5
-0.4998420946415
-0.499368478303
-0.4985794501305
-0.4974755084905
-0.496057350657
-0.494325872369
-0.4922821672645
-0.489927526192
-0.4872634363935
-0.4842915805645
-0.481013835793
-0.4774322723735
-0.4735491524975
-0.469366928827
-0.464888242944
-0.460115923683
-0.4550529853425
-0.449702625783
-0.444068224407
-0.438153340022
-0.4319617085965
-0.4254972408975
-0.418764020021
-0.411766298814
-0.4045084971875
-0.396995199324
-0.3892311507835
-0.3812212555055
-0.372970572712
-0.3644843137105
-0.3557678386045
-0.3468266529065
-0.3376664040605
-0.3282928778765
-0.3187119948745
-0.308929806545
-0.298952491529
-0.288786351711
-0.278437808244
-0.2679133974895
-0.257219766891
-0.246363670774
-0.2353519660825
-0.224191608045
-0.2128896457825
-0.201453217857
-0.189889547761
-0.1782059393565
-0.1664097722615
-0.1545084971875
-0.142509631235
-0.130420753145
-0.118249498512
-0.106003554961
-0.093690657293
-0.0813185825975
-0.0688951453425
-0.0564281924365
-0.04392559827535
-0.03139525976465
-0.01884509133495
-0.00628301994165
0.0062830199417
0.01884509133495
0.03139525976465
0.04392559827535
0.0564281924365
0.0688951453425
0.0813185825975
0.093690657293
0.106003554961
0.118249498512
0.130420753145
0.142509631235
0.1545084971875
0.1664097722615
0.1782059393565
0.189889547761
0.201453217857
0.2128896457825
0.224191608045
0.2353519660825
0.246363670774
0.257219766891
0.2679133974895
0.278437808244
0.288786351711
0.298952491529
0.308929806545
0.3187119948745
0.3282928778765
0.3376664040605
0.3468266529065
0.3557678386045
0.3644843137105
0.372970572712
0.3812212555055
0.3892311507835
0.396995199324
0.4045084971875
0.411766298814
0.418764020021
0.4254972408975
0.4319617085965
0.438153340022
0.444068224407
0.449702625783
0.4550529853425
0.460115923683
0.464888242944
0.469366928827
0.4735491524975
0.4774322723735
0.481013835793
0.4842915805645
0.4872634363935
0.489927526192
0.4922821672645
0.494325872369
0.496057350657
0.4974755084905
0.4985794501305
0.499368478303
0.4998420946415
0.5
0.4998420946415
0.499368478303
0.4985794501305
0.4974755084905
0.496057350657
0.494325872369
0.4922821672645
0.489927526192
0.4872634363935
0.4842915805645
0.481013835793
0.4774322723735
0.4735491524975
0.469366928827
0.464888242944
0.460115923683
0.4550529853425
0.449702625783
0.444068224407
0.438153340022
0.4319617085965
0.4254972408975
0.418764020021
0.411766298814
0.4045084971875
0.396995199324
0.3892311507835
0.3812212555055
0.372970572712
0.3644843137105
0.3557678386045
0.3468266529065
0.3376664040605
0.3282928778765
0.3187119948745
0.308929806545
0.298952491529
0.288786351711
0.278437808244
0.2679133974895
0.257219766891
0.246363670774
0.2353519660825
0.224191608045
0.2128896457825
0.201453217857
0.189889547761
0.1782059393565
0.1664097722615
0.1545084971875
0.142509631235
0.130420753145
0.118249498512
0.106003554961
0.093690657293
0.0813185825975
0.0688951453425
0.0564281924365
0.04392559827535
0.03139525976465
0.01884509133495
0.00628301994165
-0.0062830199417
-0.01884509133495
-0.03139525976465
-0.04392559827535
-0.0564281924365
-0.0688951453425
-0.0813185825975
-0.093690657293
-0.106003554961
-0.118249498512
-0.130420753145
-0.142509631235
-0.1545084971875
-0.1664097722615
-0.1782059393565
-0.189889547761
-0.201453217857
-0.2128896457825
-0.224191608045
-0.2353519660825
-0.246363670774
-0.257219766891
-0.2679133974895
-0.278437808244
-0.288786351711
-0.298952491529
-0.308929806545
-0.3187119948745
-0.3282928778765
-0.3376664040605
-0.3468266529065
-0.3557678386045
-0.3644843137105
-0.372970572712
-0.3812212555055
-0.3892311507835
-0.396995199324
-0.4045084971875
-0.411766298814
-0.418764020021
-0.4254972408975
-0.4319617085965
-0.438153340022
-0.444068224407
-0.449702625783
-0.4550529853425
-0.460115923683
-0.464888242944
-0.469366928827
-0.4735491524975
-0.4774322723735
-0.481013835793
-0.4842915805645
-0.4872634363935
-0.489927526192
-0.4922821672645
-0.494325872369
-0.496057350657
-0.4974755084905
-0.4985794501305
-0.499368478303
-0.4998420946415
-0.5
-0.4998420946415
-0.499368478303
-0.4985794501305
-0.4974755084905
-0.496057350657
-0.494325872369
-0.4922821672645
-0.489927526192
-0.4872634363935
-0.4842915805645
-0.481013835793
-0.4774322723735
-0.4735491524975
-0.469366928827
-0.464888242944
-0.460115923683
-0.4550529853425
-0.449702625783
-0.444068224407
-0.438153340022
-0.4319617085965
-0.4254972408975
-0.418764020021
-0.411766298814
-0.4045084971875
-0.396995199324
-0.3892311507835
-0.3812212555055
-0.372970572712
-0.3644843137105
-0.3557678386045
-0.3468266529065
-0.3376664040605
-0.3282928778765
-0.3187119948745
-0.308929806545
-0.298952491529
-0.288786351711
-0.278437808244
-0.2679133974895
-0.257219766891
-0.246363670774
-0.2353519660825
-0.224191608045
-0.2128896457825
-0.201453217857
-0.189889547761
-0.1782059393565
-0.1664097722615
-0.1545084971875
-0.142509631235
-0.130420753145
-0.118249498512
-0.106003554961
-0.093690657293
-0.0813185825975
-0.0688951453425
-0.0564281924365
-0.04392559827535
-0.03139525976465
-0.01884509133495
-0.0062830199417
0.0062830199417
0.01884509133495
0.03139525976465
0.04392559827535
0.0564281924365
0.0688951453425
0.0813185825975
0.093690657293
0.106003554961
0.118249498512
0.130420753145
0.142509631235
0.1545084971875
0.1664097722615
0.1782059393565
0.189889547761
0.201453217857
0.2128896457825
0.224191608045
0.2353519660825
0.246363670774
0.257219766891
0.2679133974895
0.278437808244
0.288786351711
0.298952491529
0.308929806545
0.3187119948745
0.3282928778765
0.3376664040605
0.3468266529065
0.3557678386045
0.3644843137105
0.372970572712
0.3812212555055
0.3892311507835
0.396995199324
0.4045084971875
0.411766298814
0.418764020021
0.4254972408975
0.4319617085965
0.438153340022
0.444068224407
0.449702625783
0.4550529853425
0.460115923683
0.464888242944
0.469366928827
0.4735491524975
0.4774322723735
0.481013835793
0.4842915805645
0.4872634363935
0.489927526192
0.4922821672645
0.494325872369
0.496057350657
0.4974755084905
0.4985794501305
0.499368478303
0.4998420946415
0.5
0.4998420946415
0.499368478303
0.4985794501305
0.4974755084905
0.496057350657
0.494325872369
0.4922821672645
0.489927526192
0.4872634363935
0.4842915805645
0.481013835793
0.4774322723735
0.4735491524975
0.469366928827
0.464888242944
0.460115923683
0.4550529853425
0.449702625783
0.444068224407
0.438153340022
0.4319617085965
0.4254972408975
0.418764020021
0.411766298814
0.4045084971875
0.396995199324
0.3892311507835
0.3812212555055
0.372970572712
0.3644843137105
0.3557678386045
0.3468266529065
0.3376664040605
0.3282928778765
0.3187119948745
0.308929806545
0.298952491529
0.288786351711
0.278437808244
0.2679133974895
0.257219766891
0.246363670774
0.2353519660825
0.224191608045
0.2128896457825
0.201453217857
0.189889547761
0.1782059393565
0.1664097722615
0.1545084971875
0.142509631235
0.130420753145
0.118249498512
0.106003554961
0.093690657293
0.0813185825975
0.0688951453425
0.0564281924365
0.04392559827535
0.03139525976465
0.01884509133495
0.0062830199417
-0.0062830199417
-0.01884509133495
-0.03139525976465
-0.0439255982754
-0.0564281924365
-0.0688951453425
-0.0813185825975
-0.093690657293
-0.106003554961
-0.118249498512
-0.130420753145
-0.142509631235
-0.1545084971875
-0.1664097722615
-0.1782059393565
-0.189889547761
-0.201453217857
-0.2128896457825
-0.224191608045
-0.2353519660825
-0.246363670774
-0.257219766891
-0.2679133974895
-0.278437808244
-0.288786351711
-0.298952491529
-0.308929806545
-0.3187119948745
-0.3282928778765
-0.3376664040605
-0.3468266529065
-0.3557678386045
-0.3644843137105
-0.372970572712
-0.3812212555055
-0.3892311507835
-0.396995199324
-0.4045084971875
-0.411766298814
-0.418764020021
-0.4254972408975
-0.4319617085965
-0.438153340022
-0.444068224407
-0.449702625783
-0.4550529853425
-0.460115923683
-0.464888242944
-0.469366928827
-0.4735491524975
-0.4774322723735
-0.481013835793
-0.4842915805645
-0.4872634363935
-0.489927526192
-0.4922821672645
-0.494325872369
-0.496057350657
-0.4974755084905
-0.4985794501305
-0.499368478303
-0.4998420946415
-0.5
-0.4998420946415
-0.499368478303
-0.4985794501305
-0.4974755084905
-0.496057350657
-0.494325872369
-0.4922821672645
-0.489927526192
-0.4872634363935
-0.4842915805645
-0.481013835793
-0.4774322723735
-0.4735491524975
-0.469366928827
-0.464888242944
-0.460115923683
-0.4550529853425
-0.449702625783
-0.444068224407
-0.438153340022
-0.4319617085965
-0.4254972408975
-0.418764020021
-0.411766298814
-0.4045084971875
-0.396995199324
-0.3892311507835
-0.3812212555055
-0.372970572712
-0.3644843137105
-0.3557678386045
-0.3468266529065
-0.3376664040605
-0.3282928778765
-0.3187119948745
-0.308929806545
-0.298952491529
-0.288786351711
-0.278437808244
-0.2679133974895
-0.257219766891
-0.246363670774
-0.2353519660825
-0.224191608045
-0.2128896457825
-0.201453217857
-0.189889547761
-0.1782059393565
-0.1664097722615
-0.1545084971875
-0.142509631235
-0.130420753145
-0.118249498512
-0.106003554961
-0.093690657293
-0.0813185825975
-0.0688951453425
-0.0564281924365
-0.04392559827535
-0.03139525976465
-0.01884509133495
-0.0062830199417
0.0062830199417
0.01884509133495
0.03139525976465
0.04392559827535
0.0564281924365
0.0688951453425
0.0813185825975
0.093690657293
0.106003554961
0.118249498512
0.130420753145
0.142509631235
0.1545084971875
0.1664097722615
0.1782059393565
0.189889547761
0.201453217857
0.2128896457825
0.224191608045
0.2353519660825
0.246363670774
0.257219766891
0.2679133974895
0.278437808244
0.288786351711
0.298952491529
0.308929806545
0.3187119948745
0.3282928778765
0.3376664040605
0.3468266529065
0.3557678386045
0.3644843137105
0.372970572712
0.3812212555055
0.3892311507835
0.396995199324
0.4045084971875
0.411766298814
0.418764020021
0.4254972408975
0.4319617085965
0.438153340022
0.444068224407
0.449702625783
0.4550529853425
0.460115923683
0.464888242944
0.469366928827
0.4735491524975
0.4774322723735
0.481013835793
0.4842915805645
0.4872634363935
0.489927526192
0.4922821672645
0.494325872369
0.496057350657
0.4974755084905
0.4985794501305
0.499368478303
0.4998420946415
0.5
0.4998420946415
0.499368478303
0.4985794501305
0.4974755084905
0.496057350657
0.494325872369
0.4922821672645
0.489927526192
0.4872634363935
0.4842915805645
0.481013835793
0.4774322723735
0.4735491524975
0.469366928827
0.464888242944
0.460115923683
0.4550529853425
0.449702625783
0.444068224407
0.438153340022
0.4319617085965
0.4254972408975
0.418764020021
0.411766298814
0.4045084971875
0.396995199324
0.3892311507835
0.3812212555055
0.372970572712
0.3644843137105
0.3557678386045
0.3468266529065
0.3376664040605
0.3282928778765
0.3187119948745
0.308929806545
0.298952491529
0.288786351711
0.278437808244
0.2679133974895
0.257219766891
0.246363670774
0.2353519660825
0.224191608045
0.2128896457825
0.201453217857
0.189889547761
0.1782059393565
0.1664097722615
0.1545084971875
0.142509631235
0.130420753145
0.118249498512
0.106003554961
0.093690657293
0.0813185825975
0.0688951453425
0.0564281924365
0.04392559827535
0.03139525976465
0.01884509133495
0.00628301994165
-0.0062830199417
-0.01884509133495
-0.03139525976465
-0.04392559827535
-0.0564281924365
-0.0688951453425
-0.0813185825975
-0.093690657293
-0.106003554961
-0.118249498512
-0.130420753145
-0.142509631235
-0.1545084971875
-0.1664097722615
-0.1782059393565
-0.189889547761
-0.201453217857
-0.2128896457825
-0.224191608045
-0.2353519660825
-0.246363670774
-0.257219766891
-0.2679133974895
-0.278437808244
-0.288786351711
-0.298952491529
-0.308929806545
-0.3187119948745
-0.3282928778765
-0.3376664040605
-0.3468266529065
-0.3557678386045
-0.3644843137105
-0.372970572712
-0.3812212555055
-0.3892311507835
-0.396995199324
-0.4045084971875
-0.411766298814
-0.418764020021
-0.4254972408975
-0.4319617085965
-0.438153340022
-0.444068224407
-0.449702625783
-0.4550529853425
-0.460115923683
-0.464888242944
-0.469366928827
-0.4735491524975
-0.4774322723735
-0.481013835793
-0.4842915805645
-0.4872634363935
-0.489927526192
-0.4922821672645
-0.494325872369
-0.496057350657
-0.4974755084905
-0.4985794501305
-0.499368478303
-0.4998420946415
-0.5
-0.4998420946415
-0.499368478303
-0.4985794501305
-0.4974755084905
-0.496057350657
-0.494325872369
-0.4922821672645
-0.489927526192
-0.4872634363935
-0.4842915805645
-0.481013835793
-0.4774322723735
-0.4735491524975
-0.469366928827
-0.464888242944
-0.460115923683
-0.4550529853425
-0.449702625783
-0.444068224407
-0.438153340022
-0.4319617085965
-0.4254972408975
-0.418764020021
-0.411766298814
-0.4045084971875
-0.396995199324
-0.3892311507835
-0.3812212555055
-0.372970572712
-0.3644843137105
-0.3557678386045
-0.3468266529065
-0.3376664040605
-0.3282928778765
-0.3187119948745
-0.308929806545
-0.298952491529
-0.288786351711
-0.278437808244
-0.2679133974895
-0.257219766891
-0.246363670774
-0.2353519660825
-0.224191608045
-0.2128896457825
-0.201453217857
-0.189889547761
-0.1782059393565
-0.1664097722615
-0.1545084971875
-0.142509631235
-0.130420753145
-0.118249498512
-0.106003554961
-0.093690657293
-0.0813185825975
-0.0688951453425
-0.0564281924365
-0.04392559827535
-0.03139525976465
-0.01884509133495
-0.0062830199417
0.0062830199417
0.01884509133495
0.03139525976465
0.04392559827535
0.0564281924365
0.0688951453425
0.0813185825975
0.093690657293
0.106003554961
0.118249498512
0.130420753145
0.142509631235
0.1545084971875
0.1664097722615
0.1782059393565
0.189889547761
0.201453217857
0.2128896457825
0.224191608045
0.2353519660825
0.246363670774
0.257219766891
0.2679133974895
0.278437808244
0.288786351711
0.298952491529
0.308929806545
0.3187119948745
0.3282928778765
0.3376664040605
0.3468266529065
0.3557678386045
0.3644843137105
0.372970572712
0.3812212555055
0.3892311507835
0.396995199324
0.4045084971875
0.411766298814
0.418764020021
0.4254972408975
0.4319617085965
0.438153340022
0.444068224407
0.449702625783
0.4550529853425
0.460115923683
0.464888242944
0.469366928827
0.4735491524975
0.4774322723735
0.481013835793
0.4842915805645
0.4872634363935
0.489927526192
0.4922821672645
0.494325872369
0.496057350657
0.4974755084905
0.4985794501305
0.499368478303
0.4998420946415
0.5
0.4998420946415
0.499368478303
0.4985794501305
0.4974755084905
0.496057350657
0.494325872369
0.4922821672645
0.489927526192
0.4872634363935
0.4842915805645
0.481013835793
0.4774322723735
0.4735491524975
0.469366928827
0.464888242944
0.460115923683
0.4550529853425
0.449702625783
0.444068224407
0.438153340022
0.4319617085965
0.4254972408975
0.418764020021
0.411766298814
0.4045084971875
0.396995199324
0.3892311507835
0.3812212555055
0.372970572712
0.3644843137105
0.3557678386045
0.3468266529065
0.3376664040605
0.3282928778765
0.3187119948745
0.308929806545
0.298952491529
0.288786351711
0.278437808244
0.2679133974895
0.257219766891
0.246363670774
0.2353519660825
0.224191608045
0.2128896457825
0.201453217857
0.189889547761
0.1782059393565
0.1664097722615
0.1545084971875
0.142509631235
0.130420753145
0.118249498512
0.106003554961
0.093690657293
0.0813185825975
0.0688951453425
0.0564281924365
0.04392559827535
0.03139525976465
0.01884509133495
0.0062830199417
-0.00628301994165
-0.01884509133495
-0.03139525976465
-0.04392559827535
-0.0564281924365
-0.0688951453425
-0.0813185825975
-0.093690657293
-0.106003554961
-0.118249498512
-0.130420753145
-0.142509631235
-0.1545084971875
-0.1664097722615
-0.1782059393565
-0.189889547761
-0.201453217857
-0.2128896457825
-0.224191608045
-0.2353519660825
-0.246363670774
-0.257219766891
-0.2679133974895
-0.278437808244
-0.288786351711
-0.298952491529
-0.308929806545
-0.3187119948745
-0.3282928778765
-0.3376664040605
-0.3468266529065
-0.3557678386045
-0.3644843137105
-0.372970572712
-0.3812212555055
-0.3892311507835
-0.396995199324
-0.4045084971875
-0.411766298814
-0.418764020021
-0.4254972408975
-0.4319617085965
-0.438153340022
-0.444068224407
-0.449702625783
-0.4550529853425
-0.460115923683
-0.464888242944
-0.469366928827
-0.4735491524975
-0.4774322723735
-0.481013835793
-0.4842915805645
-0.4872634363935
-0.489927526192
-0.4922821672645
-0.494325872369
-0.496057350657
-0.4974755084905
-0.4985794501305
-0.499368478303
-0.4998420946415
-0.5
-0.4998420946415
-0.499368478303
-0.4985794501305
-0.4974755084905
-0.496057350657
-0.494325872369
-0.4922821672645
-0.489927526192
-0.4872634363935
-0.4842915805645
-0.481013835793
-0.4774322723735
-0.4735491524975
-0.469366928827
-0.464888242944
-0.460115923683
-0.4550529853425
-0.449702625783
-0.444068224407
-0.438153340022
-0.4319617085965
-0.4254972408975
-0.418764020021
-0.411766298814
-0.4045084971875
-0.396995199324
-0.3892311507835
-0.3812212555055
-0.372970572712
-0.3644843137105
-0.3557678386045
-0.3468266529065
-0.3376664040605
-0.3282928778765
-0.3187119948745
-0.308929806545
-0.298952491529
-0.288786351711
-0.278437808244
-0.2679133974895
-0.257219766891
-0.246363670774
-0.2353519660825
-0.224191608045
-0.2128896457825
-0.201453217857
-0.189889547761
-0.1782059393565
-0.1664097722615
-0.1545084971875
-0.142509631235
-0.130420753145
-0.118249498512
-0.106003554961
-0.093690657293
-0.0813185825975
-0.0688951453425
-0.0564281924365
-0.04392559827535
-0.03139525976465
-0.01884509133495
-0.0062830199417
0.0062830199417
0.01884509133495
0.03139525976465
0.04392559827535
0.0564281924365
0.0688951453425
0.0813185825975
0.093690657293
0.106003554961
0.118249498512
0.130420753145
0.142509631235
0.1545084971875
0.1664097722615
0.1782059393565
0.189889547761
0.201453217857
0.2128896457825
0.224191608045
0.2353519660825
0.246363670774
0.257219766891
0.2679133974895
0.278437808244
0.288786351711
0.298952491529
0.308929806545
0.3187119948745
0.3282928778765
0.3376664040605
0.3468266529065
0.3557678386045
0.3644843137105
0.372970572712
0.3812212555055
0.3892311507835
0.396995199324
0.4045084971875
0.411766298814
0.418764020021
0.4254972408975
0.4319617085965
0.438153340022
0.444068224407
0.449702625783
0.4550529853425
0.460115923683
0.464888242944
0.469366928827
0.4735491524975
0.4774322723735
0.481013835793
0.4842915805645
0.4872634363935
0.489927526192
0.4922821672645
0.494325872369
0.496057350657
0.4974755084905
0.4985794501305
0.499368478303
0.4998420946415
0.5
0.4998420946415
0.499368478303
0.4985794501305
0.4974755084905
0.496057350657
0.494325872369
0.4922821672645
0.489927526192
0.4872634363935
0.4842915805645
0.481013835793
0.4774322723735
0.4735491524975
0.469366928827
0.464888242944
0.460115923683
0.4550529853425
0.449702625783
0.444068224407
0.438153340022
0.4319617085965
0.4254972408975
0.418764020021
0.411766298814
0.4045084971875
0.396995199324
0.3892311507835
0.3812212555055
0.372970572712
0.3644843137105
0.3557678386045
0.3468266529065
0.3376664040605
0.3282928778765
0.3187119948745
0.308929806545
0.298952491529
0.288786351711
0.278437808244
0.2679133974895
0.257219766891
0.246363670774
0.2353519660825
0.224191608045
0.2128896457825
0.201453217857
0.189889547761
0.1782059393565
0.1664097722615
0.1545084971875
0.142509631235
0.130420753145
0.118249498512
0.106003554961
0.093690657293
0.0813185825975
0.0688951453425
0.0564281924365
0.04392559827535
0.03139525976465
0.01884509133495
0.00628301994165
-0.0062830199417
-0.01884509133495
-0.03139525976465
-0.04392559827535
-0.0564281924365
-0.0688951453425
-0.0813185825975
-0.093690657293
-0.106003554961
-0.118249498512
-0.130420753145
-0.142509631235
-0.1545084971875
-0.1664097722615
-0.1782059393565
-0.189889547761
-0.201453217857
-0.2128896457825
-0.224191608045
-0.2353519660825
-0.246363670774
-0.257219766891
-0.2679133974895
-0.278437808244
-0.288786351711
-0.298952491529
-0.308929806545
-0.3187119948745
-0.3282928778765
-0.3376664040605
-0.3468266529065
-0.3557678386045
-0.3644843137105
-0.372970572712
-0.3812212555055
-0.3892311507835
-0.396995199324
-0.4045084971875
-0.411766298814
-0.418764020021
-0.4254972408975
-0.4319617085965
-0.438153340022
-0.444068224407
-0.449702625783
-0.4550529853425
-0.460115923683
-0.464888242944
-0.469366928827
-0.4735491524975
-0.4774322723735
-0.481013835793
-0.4842915805645
-0.4872634363935
-0.489927526192
-0.4922821672645
-0.494325872369
-0.496057350657
-0.4974755084905
-0.4985794501305
-0.499368478303
-0.4998420946415
-0.5
-0.4998420946415
-0.499368478303
-0.4985794501305
-0.4974755084905
-0.496057350657
-0.494325872369
-0.4922821672645
-0.489927526192
-0.4872634363935
-0.4842915805645
-0.481013835793
-0.4774322723735
-0.4735491524975
-0.469366928827
-0.464888242944
-0.460115923683
-0.4550529853425
-0.449702625783
-0.444068224407
-0.438153340022
-0.4319617085965
-0.4254972408975
-0.418764020021
-0.411766298814
-0.4045084971875
-0.396995199324
-0.3892311507835
-0.3812212555055
-0.372970572712
-0.3644843137105
-0.3557678386045
-0.3468266529065
-0.3376664040605
-0.3282928778765
-0.3187119948745
-0.308929806545
-0.298952491529
-0.288786351711
-0.278437808244
-0.2679133974895
-0.257219766891
-0.246363670774
-0.2353519660825
-0.224191608045
-0.2128896457825
-0.201453217857
-0.189889547761
-0.1782059393565
-0.1664097722615
-0.1545084971875
-0.142509631235
-0.130420753145
-0.118249498512
-0.106003554961
-0.093690657293
-0.0813185825975
-0.0688951453425
-0.0564281924365
-0.04392559827535
-0.03139525976465
-0.01884509133495
-0.00628301994165
0.0062830199417
0.01884509133495
0.03139525976465
0.04392559827535
0.0564281924365
0.0688951453425
0.0813185825975
0.093690657293
0.106003554961
0.118249498512
0.130420753145
0.142509631235
0.1545084971875
0.1664097722615
0.1782059393565
0.189889547761
0.201453217857
0.2128896457825
0.224191608045
0.2353519660825
0.246363670774
0.257219766891
0.2679133974895
0.278437808244
0.288786351711
0.298952491529
0.308929806545
0.3187119948745
0.3282928778765
0.3376664040605
0.3468266529065
0.3557678386045
0.3644843137105
0.372970572712
0.3812212555055
0.3892311507835
0.396995199324
0.4045084971875
0.411766298814
0.418764020021
0.4254972408975
0.4319617085965
0.438153340022
0.444068224407
0.449702625783
0.4550529853425
0.460115923683
0.464888242944
0.469366928827
0.4735491524975
0.4774322723735
0.481013835793
0.4842915805645
0.4872634363935
0.489927526192
0.4922821672645
0.494325872369
0.496057350657
0.4974755084905
0.4985794501305
0.499368478303
0.4998420946415
0.5
0.4998420946415
0.499368478303
0.4985794501305
0.4974755084905
0.496057350657
0.494325872369
0.4922821672645
0.489927526192
0.4872634363935
0.4842915805645
0.481013835793
0.4774322723735
0.4735491524975
0.469366928827
0.464888242944
0.460115923683
0.4550529853425
0.449702625783
0.444068224407
0.438153340022
0.4319617085965
0.4254972408975
0.418764020021
0.411766298814
0.4045084971875
0.396995199324
0.3892311507835
0.3812212555055
0.372970572712
0.3644843137105
0.3557678386045
0.3468266529065
0.3376664040605
0.3282928778765
0.3187119948745
0.308929806545
0.298952491529
0.288786351711
0.278437808244
0.2679133974895
0.257219766891
0.246363670774
0.2353519660825
0.224191608045
0.2128896457825
0.201453217857
0.189889547761
0.1782059393565
0.1664097722615
0.1545084971875
0.142509631235
0.130420753145
0.118249498512
0.106003554961
0.093690657293
0.0813185825975
0.0688951453425
0.0564281924365
0.04392559827535
0.03139525976465
0.01884509133495
0.0062830199417
-0.00628301994165
-0.01884509133495
-0.03139525976465
-0.04392559827535
-0.0564281924365
-0.0688951453425
-0.0813185825975
-0.093690657293
-0.106003554961
-0.118249498512
-0.130420753145
-0.142509631235
-0.1545084971875
-0.1664097722615
-0.1782059393565
-0.189889547761
-0.201453217857
-0.2128896457825
-0.224191608045
-0.2353519660825
-0.246363670774
-0.257219766891
-0.2679133974895
-0.278437808244
-0.288786351711
-0.298952491529
-0.308929806545
-0.3187119948745
-0.3282928778765
-0.3376664040605
-0.3468266529065
-0.3557678386045
-0.3644843137105
-0.372970572712
-0.3812212555055
-0.3892311507835
-0.396995199324
-0.4045084971875
-0.411766298814
-0.418764020021
-0.4254972408975
-0.4319617085965
-0.438153340022
-0.444068224407
-0.449702625783
-0.4550529853425
-0.460115923683
-0.464888242944
-0.469366928827
-0.4735491524975
-0.4774322723735
-0.481013835793
-0.4842915805645
-0.4872634363935
-0.489927526192
-0.4922821672645
-0.494325872369
-0.496057350657
-0.4974755084905
-0.4985794501305
-0.499368478303
-0.4998420946415
-0.5
-0.4998420946415
-0.499368478303
-0.4985794501305
-0.4974755084905
-0.496057350657
-0.494325872369
-0.4922821672645
-0.489927526192
-0.4872634363935
-0.4842915805645
-0.481013835793
-0.4774322723735
-0.4735491524975
-0.469366928827
-0.464888242944
-0.460115923683
-0.4550529853425
-0.449702625783
-0.444068224407
-0.438153340022
-0.4319617085965
-0.4254972408975
-0.418764020021
-0.411766298814
-0.4045084971875
-0.396995199324
-0.3892311507835
-0.3812212555055
-0.372970572712
-0.3644843137105
-0.3557678386045
-0.3468266529065
-0.3376664040605
-0.3282928778765
-0.3187119948745
-0.308929806545
-0.298952491529
-0.288786351711
-0.278437808244
-0.2679133974895
-0.257219766891
-0.246363670774
-0.2353519660825
-0.224191608045
-0.2128896457825
-0.201453217857
-0.189889547761
-0.1782059393565
-0.1664097722615
-0.1545084971875
-0.142509631235
-0.130420753145
-0.118249498512
-0.106003554961
-0.093690657293
-0.0813185825975
-0.0688951453425
-0.0564281924365
-0.04392559827535
-0.03139525976465
-0.01884509133495
-0.0062830199417
0.0062830199417
0.01884509133495
0.03139525976465
0.0439255982754
0.0564281924365
0.0688951453425
0.0813185825975
0.093690657293
0.106003554961
0.118249498512
0.130420753145
0.142509631235
0.1545084971875
0.1664097722615
0.1782059393565
0.189889547761
0.201453217857
0.2128896457825
0.224191608045
0.2353519660825
0.246363670774
0.257219766891
0.2679133974895
0.278437808244
0.288786351711
0.298952491529
0.308929806545
0.3187119948745
0.3282928778765
0.3376664040605
0.3468266529065
0.3557678386045
0.3644843137105
0.372970572712
0.3812212555055
0.3892311507835
0.396995199324
0.4045084971875
0.411766298814
0.418764020021
0.4254972408975
0.4319617085965
0.438153340022
0.444068224407
0.449702625783
0.4550529853425
0.460115923683
0.464888242944
0.469366928827
0.4735491524975
0.4774322723735
0.481013835793
0.4842915805645
0.4872634363935
0.489927526192
0.4922821672645
0.494325872369
0.496057350657
0.4974755084905
0.4985794501305
0.499368478303
0.4998420946415
0.5
0.4998420946415
0.499368478303
0.4985794501305
0.4974755084905
0.496057350657
0.494325872369
0.4922821672645
0.489927526192
0.4872634363935
0.4842915805645
0.481013835793
0.4774322723735
0.4735491524975
0.469366928827
0.464888242944
0.460115923683
0.4550529853425
0.449702625783
0.444068224407
0.438153340022
0.4319617085965
0.4254972408975
0.418764020021
0.411766298814
0.4045084971875
0.396995199324
0.3892311507835
0.3812212555055
0.372970572712
0.3644843137105
0.3557678386045
0.3468266529065
0.3376664040605
0.3282928778765
0.3187119948745
0.308929806545
0.298952491529
0.288786351711
0.278437808244
0.2679133974895
0.2572197668905
0.246363670774
0.2353519660825
0.224191608045
0.2128896457825
0.201453217857
0.189889547761
0.1782059393565
0.1664097722615
0.1545084971875
0.142509631235
0.130420753145
0.118249498512
0.106003554961
0.093690657293
0.0813185825975
0.0688951453425
0.0564281924365
0.04392559827535
0.03139525976465
0.01884509133495
0.00628301994165
-0.0062830199417
-0.01884509133495
-0.03139525976465
-0.04392559827535
-0.0564281924365
-0.0688951453425
-0.0813185825975
-0.093690657293
-0.106003554961
-0.118249498512
-0.130420753145
-0.142509631235
-0.1545084971875
-0.1664097722615
-0.1782059393565
-0.189889547761
-0.201453217857
-0.2128896457825
-0.224191608045
-0.2353519660825
-0.246363670774
-0.257219766891
-0.2679133974895
-0.278437808244
-0.288786351711
-0.298952491529
-0.308929806545
-0.3187119948745
-0.3282928778765
-0.3376664040605
-0.3468266529065
-0.3557678386045
-0.3644843137105
-0.372970572712
-0.3812212555055
-0.3892311507835
-0.396995199324
-0.4045084971875
-0.411766298814
-0.418764020021
-0.4254972408975
-0.4319617085965
-0.438153340022
-0.444068224407
-0.449702625783
-0.4550529853425
-0.460115923683
-0.464888242944
-0.469366928827
-0.4735491524975
-0.4774322723735
-0.481013835793
-0.4842915805645
-0.4872634363935
-0.489927526192
-0.4922821672645
-0.494325872369
-0.496057350657
-0.4974755084905
-0.4985794501305
-0.499368478303
-0.4998420946415
-0.5
-0.4998420946415
-0.499368478303
-0.4985794501305
-0.4974755084905
-0.496057350657
-0.494325872369
-0.4922821672645
-0.489927526192
-0.4872634363935
-0.4842915805645
-0.481013835793
-0.4774322723735
-0.4735491524975
-0.469366928827
-0.464888242944
-0.460115923683
-0.4550529853425
-0.449702625783
-0.444068224407
-0.438153340022
-0.4319617085965
-0.4254972408975
-0.418764020021
-0.411766298814
-0.4045084971875
-0.396995199324
-0.3892311507835
-0.3812212555055
-0.372970572712
-0.3644843137105
-0.3557678386045
-0.3468266529065
-0.3376664040605
-0.3282928778765
-0.3187119948745
-0.308929806545
-0.298952491529
-0.288786351711
-0.278437808244
-0.2679133974895
-0.257219766891
-0.246363670774
-0.2353519660825
-0.224191608045
-0.2128896457825
-0.201453217857
-0.189889547761
-0.1782059393565
-0.1664097722615
-0.1545084971875
-0.142509631235
-0.130420753145
-0.118249498512
-0.106003554961
-0.093690657293
-0.0813185825975
-0.0688951453425
-0.0564281924365
-0.04392559827535
-0.03139525976465
-0.01884509133495
-0.00628301994165
0.0062830199417
0.01884509133495
0.03139525976465
0.04392559827535
0.0564281924365
0.0688951453425
0.0813185825975
0.093690657293
0.106003554961
0.118249498512
0.130420753145
0.142509631235
0.1545084971875
0.1664097722615
0.1782059393565
0.189889547761
0.201453217857
0.2128896457825
0.224191608045
0.2353519660825
0.246363670774
0.257219766891
0.2679133974895
0.278437808244
0.288786351711
0.298952491529
0.308929806545
0.3187119948745
0.3282928778765
0.3376664040605
0.3468266529065
0.3557678386045
0.3644843137105
0.372970572712
0.3812212555055
0.3892311507835
0.396995199324
0.4045084971875
0.411766298814
0.418764020021
0.4254972408975
0.4319617085965
0.438153340022
0.444068224407
0.449702625783
0.4550529853425
0.460115923683
0.464888242944
0.469366928827
0.4735491524975
0.4774322723735
0.481013835793
0.4842915805645
0.4872634363935
0.489927526192
0.4922821672645
0.494325872369
0.496057350657
0.4974755084905
0.4985794501305
0.499368478303
0.4998420946415
0.5
0.4998420946415
0.499368478303
0.4985794501305
0.4974755084905
0.496057350657
0.494325872369
0.4922821672645
0.489927526192
0.4872634363935
0.4842915805645
0.481013835793
0.4774322723735
0.4735491524975
0.469366928827
0.464888242944
0.460115923683
0.4550529853425
0.449702625783
0.444068224407
0.438153340022
0.4319617085965
0.4254972408975
0.418764020021
0.411766298814
0.4045084971875
0.396995199324
0.3892311507835
0.3812212555055
0.372970572712
0.3644843137105
0.3557678386045
0.3468266529065
0.3376664040605
0.3282928778765
0.3187119948745
0.308929806545
0.298952491529
0.288786351711
0.278437808244
0.2679133974895
0.257219766891
0.246363670774
0.2353519660825
0.224191608045
0.2128896457825
0.201453217857
0.189889547761
0.1782059393565
0.1664097722615
0.1545084971875
0.142509631235
0.130420753145
0.118249498512
0.106003554961
0.093690657293
0.0813185825975
0.0688951453425
0.0564281924365
0.04392559827535
0.03139525976465
0.01884509133495
0.0062830199417
-0.00628301994165
-0.01884509133495
-0.03139525976465
-0.04392559827535
-0.0564281924365
-0.0688951453425
-0.0813185825975
-0.093690657293
-0.106003554961
-0.118249498512
-0.130420753145
-0.142509631235
-0.1545084971875
-0.1664097722615
-0.1782059393565
-0.189889547761
-0.201453217857
-0.2128896457825
-0.224191608045
-0.2353519660825
-0.246363670774
-0.257219766891
-0.2679133974895
-0.278437808244
-0.288786351711
-0.298952491529
-0.308929806545
-0.3187119948745
-0.3282928778765
-0.3376664040605
-0.3468266529065
-0.3557678386045
-0.3644843137105
-0.372970572712
-0.3812212555055
-0.3892311507835
-0.396995199324
-0.4045084971875
-0.411766298814
-0.418764020021
-0.4254972408975
-0.4319617085965
-0.438153340022
-0.444068224407
-0.449702625783
-0.4550529853425
-0.460115923683
-0.464888242944
-0.469366928827
-0.4735491524975
-0.4774322723735
-0.481013835793
-0.4842915805645
-0.4872634363935
-0.489927526192
-0.4922821672645
-0.494325872369
-0.496057350657
-0.4974755084905
-0.4985794501305
-0.499368478303
-0.4998420946415
-0.5
-0.4998420946415
-0.499368478303
-0.4985794501305
-0.4974755084905
-0.496057350657
-0.494325872369
-0.4922821672645
-0.489927526192
-0.4872634363935
-0.4842915805645
-0.481013835793
-0.4774322723735
-0.4735491524975
-0.469366928827
-0.464888242944
-0.460115923683
-0.4550529853425
-0.449702625783
-0.444068224407
-0.438153340022
-0.4319617085965
-0.4254972408975
-0.418764020021
-0.411766298814
-0.4045084971875
-0.396995199324
-0.3892311507835
-0.3812212555055
-0.372970572712
-0.3644843137105
-0.3557678386045
-0.3468266529065
-0.3376664040605
-0.3282928778765
-0.3187119948745
-0.308929806545
-0.298952491529
-0.288786351711
-0.278437808244
-0.2679133974895
-0.257219766891
-0.246363670774
-0.2353519660825
-0.224191608045
-0.2128896457825
-0.201453217857
-0.189889547761
-0.1782059393565
-0.1664097722615
-0.1545084971875
-0.142509631235
-0.130420753145
-0.118249498512
-0.106003554961
-0.093690657293
-0.0813185825975
-0.0688951453425
-0.0564281924365
-0.0439255982754
-0.03139525976465
-0.01884509133495
-0.0062830199417
0.0062830199417
0.01884509133495
0.03139525976465
0.04392559827535
0.0564281924365
0.0688951453425
0.0813185825975
0.093690657293
0.106003554961
0.118249498512
0.130420753145
0.142509631235
0.1545084971875
0.1664097722615
0.1782059393565
0.189889547761
0.201453217857
0.2128896457825
0.224191608045
0.2353519660825
0.246363670774
0.257219766891
0.2679133974895
0.278437808244
0.288786351711
0.298952491529
0.308929806545
0.3187119948745
0.3282928778765
0.3376664040605
0.3468266529065
0.3557678386045
0.3644843137105
0.372970572712
0.3812212555055
0.3892311507835
0.396995199324
0.4045084971875
0.411766298814
0.418764020021
0.4254972408975
0.4319617085965
0.438153340022
0.444068224407
0.449702625783
0.4550529853425
0.460115923683
0.464888242944
0.469366928827
0.4735491524975
0.4774322723735
0.481013835793
0.4842915805645
0.4872634363935
0.489927526192
0.4922821672645
0.494325872369
0.496057350657
0.4974755084905
0.4985794501305
0.499368478303
0.4998420946415
0.5
0.4998420946415
0.499368478303
0.4985794501305
0.4974755084905
0.496057350657
0.494325872369
0.4922821672645
0.489927526192
0.4872634363935
0.4842915805645
0.481013835793
0.4774322723735
0.4735491524975
0.469366928827
0.464888242944
0.460115923683
0.4550529853425
0.449702625783
0.444068224407
0.438153340022
0.4319617085965
0.4254972408975
0.418764020021
0.411766298814
0.4045084971875
0.396995199324
0.3892311507835
0.3812212555055
0.372970572712
0.3644843137105
0.3557678386045
0.3468266529065
0.3376664040605
0.3282928778765
0.3187119948745
0.308929806545
0.298952491529
0.288786351711
0.278437808244
0.2679133974895
0.2572197668905
0.246363670774
0.2353519660825
0.224191608045
0.2128896457825
0.201453217857
0.189889547761
0.1782059393565
0.1664097722615
0.1545084971875
0.142509631235
0.130420753145
0.118249498512
0.106003554961
0.093690657293
0.0813185825975
0.0688951453425
0.0564281924365
0.04392559827535
0.03139525976465
0.01884509133495
0.0062830199417
-0.0062830199417
-0.018845091335
-0.03139525976465
-0.0439255982754
-0.0564281924365
-0.0688951453425
-0.0813185825975
-0.093690657293
-0.106003554961
-0.118249498512
-0.130420753145
-0.142509631235
-0.1545084971875
-0.1664097722615
-0.1782059393565
-0.189889547761
-0.201453217857
-0.2128896457825
-0.224191608045
-0.2353519660825
-0.246363670774
-0.257219766891
-0.2679133974895
-0.278437808244
-0.288786351711
-0.298952491529
-0.308929806545
-0.3187119948745
-0.3282928778765
-0.3376664040605
-0.3468266529065
-0.3557678386045
-0.3644843137105
-0.372970572712
-0.3812212555055
-0.3892311507835
-0.396995199324
-0.4045084971875
-0.411766298814
-0.418764020021
-0.4254972408975
-0.4319617085965
-0.438153340022
-0.444068224407
-0.449702625783
-0.4550529853425
-0.460115923683
-0.464888242944
-0.469366928827
-0.4735491524975
-0.4774322723735
-0.481013835793
-0.4842915805645
-0.4872634363935
-0.489927526192
-0.4922821672645
-0.494325872369
-0.496057350657
-0.4974755084905
-0.4985794501305
-0.499368478303
-0.4998420946415
-0.5
-0.4998420946415
-0.499368478303
-0.4985794501305
-0.4974755084905
-0.496057350657
-0.494325872369
-0.4922821672645
-0.489927526192
-0.4872634363935
-0.4842915805645
-0.481013835793
-0.4774322723735
-0.4735491524975
-0.469366928827
-0.464888242944
-0.460115923683
-0.4550529853425
-0.449702625783
-0.444068224407
-0.438153340022
-0.4319617085965
-0.4254972408975
-0.418764020021
-0.411766298814
-0.4045084971875
-0.396995199324
-0.3892311507835
-0.3812212555055
-0.372970572712
-0.3644843137105
-0.3557678386045
-0.3468266529065
-0.3376664040605
-0.3282928778765
-0.3187119948745
-0.308929806545
-0.298952491529
-0.288786351711
-0.278437808244
-0.2679133974895
-0.257219766891
-0.246363670774
-0.2353519660825
-0.224191608045
-0.2128896457825
-0.201453217857
-0.189889547761
-0.1782059393565
-0.1664097722615
-0.1545084971875
-0.142509631235
-0.130420753145
-0.118249498512
-0.106003554961
-0.093690657293
-0.0813185825975
-0.0688951453425
-0.0564281924365
-0.04392559827535
-0.03139525976465
-0.01884509133495
-0.00628301994165
0.00628301994165
0.01884509133495
0.03139525976465
0.04392559827535
0.0564281924365
0.0688951453425
0.0813185825975
0.093690657293
0.106003554961
0.118249498512
0.130420753145
0.142509631235
0.1545084971875
0.1664097722615
0.1782059393565
0.189889547761
0.201453217857
0.2128896457825
0.224191608045
0.2353519660825
0.246363670774
0.257219766891
0.2679133974895
0.278437808244
0.288786351711
0.298952491529
0.308929806545
0.3187119948745
0.3282928778765
0.3376664040605
0.3468266529065
0.3557678386045
0.3644843137105
0.372970572712
0.3812212555055
0.3892311507835
0.396995199324
0.4045084971875
0.411766298814
0.418764020021
0.4254972408975
0.4319617085965
0.438153340022
0.444068224407
0.449702625783
0.4550529853425
0.460115923683
0.464888242944
0.469366928827
0.4735491524975
0.4774322723735
0.481013835793
0.4842915805645
0.4872634363935
0.489927526192
0.4922821672645
0.494325872369
0.496057350657
0.4974755084905
0.4985794501305
0.499368478303
0.4998420946415
0.5
0.4998420946415
0.499368478303
0.4985794501305
0.4974755084905
0.496057350657
0.494325872369
0.4922821672645
0.489927526192
0.4872634363935
0.4842915805645
0.481013835793
0.4774322723735
0.4735491524975
0.469366928827
0.464888242944
0.460115923683
0.4550529853425
0.449702625783
0.444068224407
0.438153340022
0.4319617085965
0.4254972408975
0.418764020021
0.411766298814
0.4045084971875
0.396995199324
0.3892311507835
0.3812212555055
0.372970572712
0.3644843137105
0.3557678386045
0.3468266529065
0.3376664040605
0.3282928778765
0.3187119948745
0.308929806545
0.298952491529
0.288786351711
0.278437808244
0.2679133974895
0.2572197668905
0.246363670774
0.2353519660825
0.224191608045
0.2128896457825
0.201453217857
0.189889547761
0.1782059393565
0.1664097722615
0.1545084971875
0.142509631235
0.130420753145
0.118249498512
0.106003554961
0.093690657293
0.0813185825975
0.0688951453425
0.0564281924365
0.04392559827535
0.03139525976465
0.01884509133495
0.0062830199417
-0.0062830199417
-0.01884509133495
-0.03139525976465
-0.04392559827535
-0.0564281924365
-0.0688951453425
-0.0813185825975
-0.093690657293
-0.106003554961
-0.118249498512
-0.130420753145
-0.142509631235
-0.1545084971875
-0.1664097722615
-0.1782059393565
-0.189889547761
-0.201453217857
-0.2128896457825
-0.224191608045
-0.2353519660825
-0.246363670774
-0.2572197668905
-0.2679133974895
-0.278437808244
-0.288786351711
-0.298952491529
-0.308929806545
-0.3187119948745
-0.3282928778765
-0.3376664040605
-0.3468266529065
-0.3557678386045
-0.3644843137105
-0.372970572712
-0.3812212555055
-0.3892311507835
-0.396995199324
-0.4045084971875
-0.411766298814
-0.418764020021
-0.4254972408975
-0.4319617085965
-0.438153340022
-0.444068224407
-0.449702625783
-0.4550529853425
-0.460115923683
-0.464888242944
-0.469366928827
-0.4735491524975
-0.4774322723735
-0.481013835793
-0.4842915805645
-0.4872634363935
-0.489927526192
-0.4922821672645
-0.494325872369
-0.496057350657
-0.4974755084905
-0.4985794501305
-0.499368478303
-0.4998420946415
-0.5
-0.4998420946415
-0.499368478303
-0.4985794501305
-0.4974755084905
-0.496057350657
-0.494325872369
-0.4922821672645
-0.489927526192
-0.4872634363935
-0.4842915805645
-0.481013835793
-0.4774322723735
-0.4735491524975
-0.469366928827
-0.464888242944
-0.460115923683
-0.4550529853425
-0.449702625783
-0.444068224407
-0.438153340022
-0.4319617085965
-0.4254972408975
-0.418764020021
-0.411766298814
-0.4045084971875
-0.396995199324
-0.3892311507835
-0.3812212555055
-0.372970572712
-0.3644843137105
-0.3557678386045
-0.3468266529065
-0.3376664040605
-0.3282928778765
-0.3187119948745
-0.308929806545
-0.298952491529
-0.288786351711
-0.278437808244
-0.2679133974895
-0.257219766891
-0.246363670774
-0.2353519660825
-0.224191608045
-0.2128896457825
-0.201453217857
-0.189889547761
-0.1782059393565
-0.1664097722615
-0.1545084971875
-0.142509631235
-0.130420753145
-0.118249498512
-0.106003554961
-0.093690657293
-0.0813185825975
-0.0688951453425
-0.0564281924365
-0.04392559827535
-0.03139525976465
-0.01884509133495
-0.00628301994165
0.0062830199417
0.01884509133495
0.03139525976465
0.0439255982754
0.0564281924365
0.0688951453425
0.0813185825975
0.093690657293
0.106003554961
0.118249498512
0.130420753145
0.142509631235
0.1545084971875
0.1664097722615
0.1782059393565
0.189889547761
0.201453217857
0.2128896457825
0.224191608045
0.2353519660825
0.246363670774
0.257219766891
0.2679133974895
0.278437808244
0.288786351711
0.298952491529
0.308929806545
0.3187119948745
0.3282928778765
0.3376664040605
0.3468266529065
0.3557678386045
0.3644843137105
0.372970572712
0.3812212555055
0.3892311507835
0.396995199324
0.4045084971875
0.411766298814
0.418764020021
0.4254972408975
0.4319617085965
0.438153340022
0.444068224407
0.449702625783
0.4550529853425
0.460115923683
0.464888242944
0.469366928827
0.4735491524975
0.4774322723735
0.481013835793
0.4842915805645
0.4872634363935
0.489927526192
0.4922821672645
0.494325872369
0.496057350657
0.4974755084905
0.4985794501305
0.499368478303
0.4998420946415
0.5
0.4998420946415
0.499368478303
0.4985794501305
0.4974755084905
0.496057350657
0.494325872369
0.4922821672645
0.489927526192
0.4872634363935
0.4842915805645
0.481013835793
0.4774322723735
0.4735491524975
0.469366928827
0.464888242944
0.460115923683
0.4550529853425
0.449702625783
0.444068224407
0.438153340022
0.4319617085965
0.4254972408975
0.418764020021
0.411766298814
0.4045084971875
0.396995199324
0.3892311507835
0.3812212555055
0.372970572712
0.3644843137105
0.3557678386045
0.3468266529065
0.3376664040605
0.3282928778765
0.3187119948745
0.308929806545
0.298952491529
0.288786351711
0.278437808244
0.2679133974895
0.257219766891
0.246363670774
0.2353519660825
0.224191608045
0.2128896457825
0.201453217857
0.189889547761
0.1782059393565
0.1664097722615
0.1545084971875
0.142509631235
0.130420753145
0.118249498512
0.106003554961
0.093690657293
0.0813185825975
0.0688951453425
0.0564281924365
0.04392559827535
0.03139525976465
0.01884509133495
0.00628301994165
-0.0062830199417
-0.01884509133495
-0.03139525976465
-0.04392559827535
-0.0564281924365
-0.0688951453425
-0.0813185825975
-0.093690657293
-0.106003554961
-0.118249498512
-0.130420753145
-0.142509631235
-0.1545084971875
-0.1664097722615
-0.1782059393565
-0.189889547761
-0.201453217857
-0.2128896457825
-0.224191608045
-0.2353519660825
-0.246363670774
-0.257219766891
-0.2679133974895
-0.278437808244
-0.288786351711
-0.298952491529
-0.308929806545
-0.3187119948745
-0.3282928778765
-0.3376664040605
-0.3468266529065
-0.3557678386045
-0.3644843137105
-0.372970572712
-0.3812212555055
-0.3892311507835
-0.396995199324
-0.4045084971875
-0.411766298814
-0.418764020021
-0.4254972408975
-0.4319617085965
-0.438153340022
-0.444068224407
-0.449702625783
-0.4550529853425
-0.460115923683
-0.464888242944
-0.469366928827
-0.4735491524975
-0.4774322723735
-0.481013835793
-0.4842915805645
-0.4872634363935
-0.489927526192
-0.4922821672645
-0.494325872369
-0.496057350657
-0.4974755084905
-0.4985794501305
-0.499368478303
-0.4998420946415
-0.5
-0.4998420946415
-0.499368478303
-0.4985794501305
-0.4974755084905
-0.496057350657
-0.494325872369
-0.4922821672645
-0.489927526192
-0.4872634363935
-0.4842915805645
-0.481013835793
-0.4774322723735
-0.4735491524975
-0.469366928827
-0.464888242944
-0.460115923683
-0.4550529853425
-0.449702625783
-0.444068224407
-0.438153340022
-0.4319617085965
-0.4254972408975
-0.418764020021
-0.411766298814
-0.4045084971875
-0.396995199324
-0.3892311507835
-0.3812212555055
-0.372970572712
-0.3644843137105
-0.3557678386045
-0.3468266529065
-0.3376664040605
-0.3282928778765
-0.3187119948745
-0.308929806545
-0.298952491529
-0.288786351711
-0.278437808244
-0.2679133974895
-0.2572197668905
-0.246363670774
-0.2353519660825
-0.224191608045
-0.2128896457825
-0.201453217857
-0.189889547761
-0.1782059393565
-0.1664097722615
-0.1545084971875
-0.142509631235
-0.130420753145
-0.118249498512
-0.106003554961
-0.093690657293
-0.0813185825975
-0.0688951453425
-0.0564281924365
-0.04392559827535
-0.03139525976465
-0.01884509133495
-0.0062830199417
0.0062830199417
0.01884509133495
0.03139525976465
0.0439255982754
0.0564281924365
0.0688951453425
0.0813185825975
0.093690657293
0.106003554961
0.118249498512
0.130420753145
0.142509631235
0.1545084971875
0.1664097722615
0.1782059393565
0.189889547761
0.201453217857
0.2128896457825
0.224191608045
0.2353519660825
0.246363670774
0.257219766891
0.2679133974895
0.278437808244
0.288786351711
0.298952491529
0.308929806545
0.3187119948745
0.3282928778765
0.3376664040605
0.3468266529065
0.3557678386045
0.3644843137105
0.372970572712
0.3812212555055
0.3892311507835
0.396995199324
0.4045084971875
0.411766298814
0.418764020021
0.4254972408975
0.4319617085965
0.438153340022
0.444068224407
0.449702625783
0.4550529853425
0.460115923683
0.464888242944
0.469366928827
0.4735491524975
0.4774322723735
0.481013835793
0.4842915805645
0.4872634363935
0.489927526192
0.4922821672645
0.494325872369
0.496057350657
0.4974755084905
0.4985794501305
0.499368478303
0.4998420946415
0.5
0.4998420946415
0.499368478303
0.4985794501305
0.4974755084905
0.496057350657
0.494325872369
0.4922821672645
0.489927526192
0.4872634363935
0.4842915805645
0.481013835793
0.4774322723735
0.4735491524975
0.469366928827
0.464888242944
0.460115923683
0.4550529853425
0.449702625783
0.444068224407
0.438153340022
0.4319617085965
0.4254972408975
0.418764020021
0.411766298814
0.4045084971875
0.396995199324
0.3892311507835
0.3812212555055
0.372970572712
0.3644843137105
0.3557678386045
0.3468266529065
0.3376664040605
0.3282928778765
0.3187119948745
0.308929806545
0.298952491529
0.288786351711
0.278437808244
0.2679133974895
0.257219766891
0.246363670774
0.2353519660825
0.224191608045
0.2128896457825
0.201453217857
0.189889547761
0.1782059393565
0.1664097722615
0.1545084971875
0.142509631235
0.130420753145
0.118249498512
0.106003554961
0.093690657293
0.0813185825975
0.0688951453425
0.0564281924365
0.04392559827535
0.03139525976465
0.01884509133495
0.00628301994165
-0.00628301994165
-0.01884509133495
-0.03139525976465
-0.04392559827535
-0.0564281924365
-0.0688951453425
-0.0813185825975
-0.093690657293
-0.106003554961
-0.118249498512
-0.130420753145
-0.142509631235
-0.1545084971875
-0.1664097722615
-0.1782059393565
-0.189889547761
-0.201453217857
-0.2128896457825
-0.224191608045
-0.2353519660825
-0.246363670774
-0.257219766891
-0.2679133974895
-0.278437808244
-0.288786351711
-0.298952491529
-0.308929806545
-0.3187119948745
-0.3282928778765
-0.3376664040605
-0.3468266529065
-0.3557678386045
-0.3644843137105
-0.372970572712
-0.3812212555055
-0.3892311507835
-0.396995199324
-0.4045084971875
-0.411766298814
-0.418764020021
-0.4254972408975
-0.4319617085965
-0.438153340022
-0.444068224407
-0.449702625783
-0.4550529853425
-0.460115923683
-0.464888242944
-0.469366928827
-0.4735491524975
-0.4774322723735
-0.481013835793
-0.4842915805645
-0.4872634363935
-0.489927526192
-0.4922821672645
-0.494325872369
-0.496057350657
-0.4974755084905
-0.4985794501305
-0.499368478303
-0.4998420946415
-0.5
-0.4998420946415
-0.499368478303
-0.4985794501305
-0.4974755084905
-0.496057350657
-0.494325872369
-0.4922821672645
-0.489927526192
-0.4872634363935
-0.4842915805645
-0.481013835793
-0.4774322723735
-0.4735491524975
-0.469366928827
-0.464888242944
-0.460115923683
-0.4550529853425
-0.449702625783
-0.444068224407
-0.438153340022
-0.4319617085965
-0.4254972408975
-0.418764020021
-0.411766298814
-0.4045084971875
-0.396995199324
-0.3892311507835
-0.3812212555055
-0.372970572712
-0.3644843137105
-0.3557678386045
-0.3468266529065
-0.3376664040605
-0.3282928778765
-0.3187119948745
-0.308929806545
-0.298952491529
-0.288786351711
-0.278437808244
-0.2679133974895
-0.257219766891
-0.246363670774
-0.2353519660825
-0.224191608045
-0.2128896457825
-0.201453217857
-0.189889547761
-0.1782059393565
-0.1664097722615
-0.1545084971875
-0.142509631235
-0.130420753145
-0.118249498512
-0.106003554961
-0.093690657293
-0.0813185825975
-0.0688951453425
-0.0564281924365
-0.0439255982754
-0.03139525976465
-0.01884509133495
-0.0062830199417
0.0062830199417
0.01884509133495
0.03139525976465
0.04392559827535
0.0564281924365
0.0688951453425
0.0813185825975
0.093690657293
0.106003554961
0.118249498512
0.130420753145
0.142509631235
0.1545084971875
0.1664097722615
0.1782059393565
0.189889547761
0.201453217857
0.2128896457825
0.224191608045
0.2353519660825
0.246363670774
0.257219766891
0.2679133974895
0.278437808244
0.288786351711
0.298952491529
0.308929806545
0.3187119948745
0.3282928778765
0.3376664040605
0.3468266529065
0.3557678386045
0.3644843137105
0.372970572712
0.3812212555055
0.3892311507835
0.396995199324
0.4045084971875
0.411766298814
0.418764020021
0.4254972408975
0.4319617085965
0.438153340022
0.444068224407
0.449702625783
0.4550529853425
0.460115923683
0.464888242944
0.469366928827
0.4735491524975
0.4774322723735
0.481013835793
0.4842915805645
0.4872634363935
0.489927526192
0.4922821672645
0.494325872369
0.496057350657
0.4974755084905
0.4985794501305
0.499368478303
0.4998420946415
0.5
0.4998420946415
0.499368478303
0.4985794501305
0.4974755084905
0.496057350657
0.494325872369
0.4922821672645
0.489927526192
0.4872634363935
0.4842915805645
0.481013835793
0.4774322723735
0.4735491524975
0.469366928827
0.464888242944
0.460115923683
0.4550529853425
0.449702625783
0.444068224407
0.438153340022
0.4319617085965
0.4254972408975
0.418764020021
0.411766298814
0.4045084971875
0.396995199324
0.3892311507835
0.3812212555055
0.372970572712
0.3644843137105
0.3557678386045
0.3468266529065
0.3376664040605
0.3282928778765
0.3187119948745
0.308929806545
0.298952491529
0.288786351711
0.278437808244
0.2679133974895
0.2572197668905
0.246363670774
0.2353519660825
0.224191608045
0.2128896457825
0.201453217857
0.189889547761
0.1782059393565
0.1664097722615
0.1545084971875
0.142509631235
0.130420753145
0.118249498512
0.106003554961
0.093690657293
0.0813185825975
0.0688951453425
0.0564281924365
0.04392559827535
0.03139525976465
0.01884509133495
0.0062830199417
-0.0062830199417
-0.01884509133495
-0.03139525976465
-0.0439255982754
-0.0564281924365
-0.0688951453425
-0.0813185825975
-0.093690657293
-0.106003554961
-0.118249498512
-0.130420753145
-0.142509631235
-0.1545084971875
-0.1664097722615
-0.1782059393565
-0.189889547761
-0.201453217857
-0.2128896457825
-0.224191608045
-0.2353519660825
-0.246363670774
-0.257219766891
-0.2679133974895
-0.278437808244
-0.288786351711
-0.298952491529
-0.308929806545
-0.3187119948745
-0.3282928778765
-0.3376664040605
-0.3468266529065
-0.3557678386045
-0.3644843137105
-0.372970572712
-0.3812212555055
-0.3892311507835
-0.396995199324
-0.4045084971875
-0.411766298814
-0.418764020021
-0.4254972408975
-0.4319617085965
-0.438153340022
-0.444068224407
-0.449702625783
-0.4550529853425
-0.460115923683
-0.464888242944
-0.469366928827
-0.4735491524975
-0.4774322723735
-0.481013835793
-0.4842915805645
-0.4872634363935
-0.489927526192
-0.4922821672645
-0.494325872369
-0.496057350657
-0.4974755084905
-0.4985794501305
-0.499368478303
-0.4998420946415
-0.5
-0.4998420946415
-0.499368478303
-0.4985794501305
-0.4974755084905
-0.496057350657
-0.494325872369
-0.4922821672645
-0.489927526192
-0.4872634363935
-0.4842915805645
-0.481013835793
-0.4774322723735
-0.4735491524975
-0.469366928827
-0.464888242944
-0.460115923683
-0.4550529853425
-0.449702625783
-0.444068224407
-0.438153340022
-0.4319617085965
-0.4254972408975
-0.418764020021
-0.411766298814
-0.4045084971875
-0.396995199324
-0.3892311507835
-0.3812212555055
-0.372970572712
-0.3644843137105
-0.3557678386045
-0.3468266529065
-0.3376664040605
-0.3282928778765
-0.3187119948745
-0.308929806545
-0.298952491529
-0.288786351711
-0.278437808244
-0.2679133974895
-0.257219766891
-0.246363670774
-0.2353519660825
-0.224191608045
-0.2128896457825
-0.201453217857
-0.189889547761
-0.1782059393565
-0.1664097722615
-0.1545084971875
-0.142509631235
-0.130420753145
-0.118249498512
-0.106003554961
-0.093690657293
-0.0813185825975
-0.0688951453425
-0.0564281924365
-0.04392559827535
-0.03139525976465
-0.01884509133495
-0.00628301994165
0.00628301994165
0.01884509133495
0.03139525976465
0.04392559827535
0.0564281924365
0.0688951453425
0.0813185825975
0.093690657293
0.106003554961
0.118249498512
0.130420753145
0.142509631235
0.1545084971875
0.1664097722615
0.1782059393565
0.189889547761
0.201453217857
0.2128896457825
0.224191608045
0.2353519660825
0.246363670774
0.257219766891
0.2679133974895
0.278437808244
0.288786351711
0.298952491529
0.308929806545
0.3187119948745
0.3282928778765
0.3376664040605
0.3468266529065
0.3557678386045
0.3644843137105
0.372970572712
0.3812212555055
0.3892311507835
0.396995199324
0.4045084971875
0.411766298814
0.418764020021
0.4254972408975
0.4319617085965
0.438153340022
0.444068224407
0.449702625783
0.4550529853425
0.460115923683
0.464888242944
0.469366928827
0.4735491524975
0.4774322723735
0.481013835793
0.4842915805645
0.4872634363935
0.489927526192
0.4922821672645
0.494325872369
0.496057350657
0.4974755084905
0.4985794501305
0.499368478303
0.4998420946415
0.5
0.4998420946415
0.499368478303
0.4985794501305
0.4974755084905
0.496057350657
0.494325872369
0.4922821672645
0.489927526192
0.4872634363935
0.4842915805645
0.481013835793
0.4774322723735
0.4735491524975
0.469366928827
0.464888242944
0.460115923683
0.4550529853425
0.449702625783
0.444068224407
0.438153340022
0.4319617085965
0.4254972408975
0.418764020021
0.411766298814
0.4045084971875
0.396995199324
0.3892311507835
0.3812212555055
0.372970572712
0.3644843137105
0.3557678386045
0.3468266529065
0.3376664040605
0.3282928778765
0.3187119948745
0.308929806545
0.298952491529
0.288786351711
0.278437808244
0.2679133974895
0.2572197668905
0.246363670774
0.2353519660825
0.224191608045
0.2128896457825
0.201453217857
0.189889547761
0.1782059393565
0.1664097722615
0.1545084971875
0.142509631235
0.130420753145
0.118249498512
0.106003554961
0.093690657293
0.0813185825975
0.0688951453425
0.0564281924365
0.04392559827535
0.03139525976465
0.01884509133495
0.0062830199417
-0.0062830199417
-0.01884509133495
-0.03139525976465
-0.04392559827535
-0.0564281924365
-0.0688951453425
-0.0813185825975
-0.093690657293
-0.106003554961
-0.118249498512
-0.130420753145
-0.142509631235
-0.1545084971875
-0.1664097722615
-0.1782059393565
-0.189889547761
-0.201453217857
-0.2128896457825
-0.224191608045
-0.2353519660825
-0.246363670774
-0.2572197668905
-0.2679133974895
-0.278437808244
-0.288786351711
-0.298952491529
-0.308929806545
-0.3187119948745
-0.3282928778765
-0.3376664040605
-0.3468266529065
-0.3557678386045
-0.3644843137105
-0.372970572712
-0.3812212555055
-0.3892311507835
-0.396995199324
-0.4045084971875
-0.411766298814
-0.418764020021
-0.4254972408975
-0.4319617085965
-0.438153340022
-0.444068224407
-0.449702625783
-0.4550529853425
-0.460115923683
-0.464888242944
-0.469366928827
-0.4735491524975
-0.4774322723735
-0.481013835793
-0.4842915805645
-0.4872634363935
-0.489927526192
-0.4922821672645
-0.494325872369
-0.496057350657
-0.4974755084905
-0.4985794501305
-0.499368478303
-0.4998420946415
-0.5
-0.4998420946415
-0.499368478303
-0.4985794501305
-0.4974755084905
-0.496057350657
-0.494325872369
-0.4922821672645
-0.489927526192
-0.4872634363935
-0.4842915805645
-0.481013835793
-0.4774322723735
-0.4735491524975
-0.469366928827
-0.464888242944
-0.460115923683
-0.4550529853425
-0.449702625783
-0.444068224407
-0.438153340022
-0.4319617085965
-0.4254972408975
-0.418764020021
-0.411766298814
-0.4045084971875
-0.396995199324
-0.3892311507835
-0.3812212555055
-0.372970572712
-0.3644843137105
-0.3557678386045
-0.3468266529065
-0.3376664040605
-0.3282928778765
-0.3187119948745
-0.308929806545
-0.298952491529
-0.288786351711
-0.278437808244
-0.2679133974895
-0.257219766891
-0.246363670774
-0.2353519660825
-0.224191608045
-0.2128896457825
-0.201453217857
-0.189889547761
-0.1782059393565
-0.1664097722615
-0.1545084971875
-0.142509631235
-0.130420753145
-0.118249498512
-0.106003554961
-0.093690657293
-0.0813185825975
-0.0688951453425
-0.0564281924365
-0.04392559827535
-0.03139525976465
-0.01884509133495
-0.00628301994165
0.0062830199417
0.01884509133495
0.03139525976465
0.0439255982754
0.0564281924365
0.0688951453425
0.0813185825975
0.093690657293
0.106003554961
0.118249498512
0.130420753145
0.142509631235
0.1545084971875
0.1664097722615
0.1782059393565
0.189889547761
0.201453217857
0.2128896457825
0.224191608045
0.2353519660825
0.246363670774
0.257219766891
0.2679133974895
0.278437808244
0.288786351711
0.298952491529
0.308929806545
0.3187119948745
0.3282928778765
0.3376664040605
0.3468266529065
0.3557678386045
0.3644843137105
0.372970572712
0.3812212555055
0.3892311507835
0.396995199324
0.4045084971875
0.411766298814
0.418764020021
0.4254972408975
0.4319617085965
0.438153340022
0.444068224407
0.449702625783
0.4550529853425
0.460115923683
0.464888242944
0.469366928827
0.4735491524975
0.4774322723735
0.481013835793
0.4842915805645
0.4872634363935
0.489927526192
0.4922821672645
0.494325872369
0.496057350657
0.4974755084905
0.4985794501305
0.499368478303
0.4998420946415
0.5
0.4998420946415
0.499368478303
0.4985794501305
0.4974755084905
0.496057350657
0.494325872369
0.4922821672645
0.489927526192
0.4872634363935
0.4842915805645
0.481013835793
0.4774322723735
0.4735491524975
0.469366928827
0.464888242944
0.460115923683
0.4550529853425
0.449702625783
0.444068224407
0.438153340022
0.4319617085965
0.4254972408975
0.418764020021
0.411766298814
0.4045084971875
0.396995199324
0.3892311507835
0.3812212555055
0.372970572712
0.3644843137105
0.3557678386045
0.3468266529065
0.3376664040605
0.3282928778765
0.3187119948745
0.308929806545
0.298952491529
0.288786351711
0.278437808244
0.2679133974895
0.257219766891
0.246363670774
0.2353519660825
0.224191608045
0.2128896457825
0.201453217857
0.189889547761
0.1782059393565
0.1664097722615
0.1545084971875
0.142509631235
0.130420753145
0.118249498512
0.106003554961
0.093690657293
0.0813185825975
0.0688951453425
0.0564281924365
0.04392559827535
0.03139525976465
0.01884509133495
0.00628301994165
-0.0062830199417
-0.01884509133495
-0.03139525976465
-0.04392559827535
-0.0564281924365
-0.0688951453425
-0.0813185825975
-0.093690657293
-0.106003554961
-0.118249498512
-0.130420753145
-0.142509631235
-0.1545084971875
-0.1664097722615
-0.1782059393565
-0.189889547761
-0.201453217857
-0.2128896457825
-0.224191608045
-0.2353519660825
-0.246363670774
-0.257219766891
-0.2679133974895
-0.278437808244
-0.288786351711
-0.298952491529
-0.308929806545
-0.3187119948745
-0.3282928778765
-0.3376664040605
-0.3468266529065
-0.3557678386045
-0.3644843137105
-0.372970572712
-0.3812212555055
-0.3892311507835
-0.396995199324
-0.4045084971875
-0.411766298814
-0.418764020021
-0.4254972408975
-0.4319617085965
-0.438153340022
-0.444068224407
-0.449702625783
-0.4550529853425
-0.460115923683
-0.464888242944
-0.469366928827
-0.4735491524975
-0.4774322723735
-0.481013835793
-0.4842915805645
-0.4872634363935
-0.489927526192
-0.4922821672645
-0.494325872369
-0.496057350657
-0.4974755084905
-0.4985794501305
-0.499368478303
-0.4998420946415
-0.5
-0.4998420946415
-0.499368478303
-0.4985794501305
-0.4974755084905
-0.496057350657
-0.494325872369
-0.4922821672645
-0.489927526192
-0.4872634363935
-0.4842915805645
-0.481013835793
-0.4774322723735
-0.4735491524975
-0.469366928827
-0.464888242944
-0.460115923683
-0.4550529853425
-0.449702625783
-0.444068224407
-0.438153340022
-0.4319617085965
-0.4254972408975
-0.418764020021
-0.411766298814
-0.4045084971875
-0.396995199324
-0.3892311507835
-0.3812212555055
-0.372970572712
-0.3644843137105
-0.3557678386045
-0.3468266529065
-0.3376664040605
-0.3282928778765
-0.3187119948745
-0.308929806545
-0.298952491529
-0.288786351711
-0.278437808244
-0.2679133974895
-0.2572197668905
-0.246363670774
-0.2353519660825
-0.224191608045
-0.2128896457825
-0.201453217857
-0.189889547761
-0.1782059393565
-0.1664097722615
-0.1545084971875
-0.142509631235
-0.130420753145
-0.118249498512
-0.106003554961
-0.093690657293
-0.0813185825975
-0.0688951453425
-0.0564281924365
-0.04392559827535
-0.03139525976465
-0.01884509133495
-0.0062830199417
0.0062830199417
0.018845091335
0.03139525976465
0.0439255982754
0.0564281924365
0.0688951453425
0.0813185825975
0.093690657293
0.106003554961
0.118249498512
0.130420753145
0.142509631235
0.1545084971875
0.1664097722615
0.1782059393565
0.189889547761
0.201453217857
0.2128896457825
0.224191608045
0.2353519660825
0.246363670774
0.257219766891
0.2679133974895
0.278437808244
0.288786351711
0.298952491529
0.308929806545
0.3187119948745
0.3282928778765
0.3376664040605
0.3468266529065
0.3557678386045
0.3644843137105
0.372970572712
0.3812212555055
0.3892311507835
0.396995199324
0.4045084971875
0.411766298814
0.418764020021
0.4254972408975
0.4319617085965
0.438153340022
0.444068224407
0.449702625783
0.4550529853425
0.460115923683
0.464888242944
0.469366928827
0.4735491524975
0.4774322723735
0.481013835793
0.4842915805645
0.4872634363935
0.489927526192
0.4922821672645
0.494325872369
0.496057350657
0.4974755084905
0.4985794501305
0.499368478303
0.4998420946415
0.5
0.4998420946415
0.499368478303
0.4985794501305
0.4974755084905
0.496057350657
0.494325872369
0.4922821672645
0.489927526192
0.4872634363935
0.4842915805645
0.481013835793
0.4774322723735
0.4735491524975
0.469366928827
0.464888242944
0.460115923683
0.4550529853425
0.449702625783
0.444068224407
0.438153340022
0.4319617085965
0.4254972408975
0.418764020021
0.411766298814
0.4045084971875
0.396995199324
0.3892311507835
0.3812212555055
0.372970572712
0.3644843137105
0.3557678386045
0.3468266529065
0.3376664040605
0.3282928778765
0.3187119948745
0.308929806545
0.298952491529
0.288786351711
0.278437808244
0.2679133974895
0.257219766891
0.246363670774
0.2353519660825
0.224191608045
0.2128896457825
0.201453217857
0.189889547761
0.1782059393565
0.1664097722615
0.1545084971875
0.142509631235
0.130420753145
0.118249498512
0.106003554961
0.093690657293
0.0813185825975
0.0688951453425
0.0564281924365
0.04392559827535
0.03139525976465
0.01884509133495
0.00628301994165
-0.00628301994165
-0.01884509133495
-0.03139525976465
-0.04392559827535
-0.0564281924365
-0.0688951453425
-0.0813185825975
-0.093690657293
-0.106003554961
-0.118249498512
-0.130420753145
-0.142509631235
-0.1545084971875
-0.1664097722615
-0.1782059393565
-0.189889547761
-0.201453217857
-0.2128896457825
-0.224191608045
-0.2353519660825
-0.246363670774
-0.257219766891
-0.2679133974895
-0.278437808244
-0.288786351711
-0.298952491529
-0.308929806545
-0.3187119948745
-0.3282928778765
-0.3376664040605
-0.3468266529065
-0.3557678386045
-0.3644843137105
-0.372970572712
-0.3812212555055
-0.3892311507835
-0.396995199324
-0.4045084971875
-0.411766298814
-0.418764020021
-0.4254972408975
-0.4319617085965
-0.438153340022
-0.444068224407
-0.449702625783
-0.4550529853425
-0.460115923683
-0.464888242944
-0.469366928827
-0.4735491524975
-0.4774322723735
-0.481013835793
-0.4842915805645
-0.4872634363935
-0.489927526192
-0.4922821672645
-0.494325872369
-0.496057350657
-0.4974755084905
-0.4985794501305
-0.499368478303
-0.4998420946415
-0.5
-0.4998420946415
-0.499368478303
-0.4985794501305
-0.4974755084905
-0.496057350657
-0.494325872369
-0.4922821672645
-0.489927526192
-0.4872634363935
-0.4842915805645
-0.481013835793
-0.4774322723735
-0.4735491524975
-0.469366928827
-0.464888242944
-0.460115923683
-0.4550529853425
-0.449702625783
-0.444068224407
-0.438153340022
-0.4319617085965
-0.4254972408975
-0.418764020021
-0.411766298814
-0.4045084971875
-0.396995199324
-0.3892311507835
-0.3812212555055
-0.372970572712
-0.3644843137105
-0.3557678386045
-0.3468266529065
-0.3376664040605
-0.3282928778765
-0.3187119948745
-0.308929806545
-0.298952491529
-0.288786351711
-0.278437808244
-0.2679133974895
-0.2572197668905
-0.246363670774
-0.2353519660825
-0.224191608045
-0.2128896457825
-0.201453217857
-0.189889547761
-0.1782059393565
-0.1664097722615
-0.1545084971875
-0.142509631235
-0.130420753145
-0.118249498512
-0.106003554961
-0.093690657293
-0.0813185825975
-0.0688951453425
-0.0564281924365
-0.04392559827535
-0.03139525976465
-0.01884509133495
-0.0062830199417
0.0062830199417
0.01884509133495
0.03139525976465
0.04392559827535
0.0564281924365
0.0688951453425
0.0813185825975
0.093690657293
0.106003554961
0.118249498512
0.130420753145
0.142509631235
0.1545084971875
0.1664097722615
0.1782059393565
0.189889547761
0.201453217857
0.2128896457825
0.224191608045
0.2353519660825
0.246363670774
0.257219766891
0.2679133974895
0.278437808244
0.288786351711
0.298952491529
0.308929806545
0.3187119948745
0.3282928778765
0.3376664040605
0.3468266529065
0.3557678386045
0.3644843137105
0.372970572712
0.3812212555055
0.3892311507835
0.396995199324
0.4045084971875
0.411766298814
0.418764020021
0.4254972408975
0.4319617085965
0.438153340022
0.444068224407
0.449702625783
0.4550529853425
0.460115923683
0.464888242944
0.469366928827
0.4735491524975
0.4774322723735
0.481013835793
0.4842915805645
0.4872634363935
0.489927526192
0.4922821672645
0.494325872369
0.496057350657
0.4974755084905
0.4985794501305
0.499368478303
0.4998420946415
0.5
0.4998420946415
0.499368478303
0.4985794501305
0.4974755084905
0.496057350657
0.494325872369
0.4922821672645
0.489927526192
0.4872634363935
0.4842915805645
0.481013835793
0.4774322723735
0.4735491524975
0.469366928827
0.464888242944
0.460115923683
0.4550529853425
0.449702625783
0.444068224407
0.438153340022
0.4319617085965
0.4254972408975
0.418764020021
0.411766298814
0.4045084971875
0.396995199324
0.3892311507835
0.3812212555055
0.372970572712
0.3644843137105
0.3557678386045
0.3468266529065
0.3376664040605
0.3282928778765
0.3187119948745
0.308929806545
0.298952491529
0.288786351711
0.278437808244
0.2679133974895
0.257219766891
0.246363670774
0.2353519660825
0.224191608045
0.2128896457825
0.201453217857
0.189889547761
0.1782059393565
0.1664097722615
0.1545084971875
0.142509631235
0.130420753145
0.118249498512
0.106003554961
0.093690657293
0.0813185825975
0.0688951453425
0.0564281924365
0.04392559827535
0.03139525976465
0.01884509133495
0.00628301994165
-0.0062830199417
-0.01884509133495
-0.03139525976465
-0.0439255982754
-0.0564281924365
-0.0688951453425
-0.0813185825975
-0.093690657293
-0.106003554961
-0.118249498512
-0.130420753145
-0.142509631235
-0.1545084971875
-0.1664097722615
-0.1782059393565
-0.189889547761
-0.201453217857
-0.2128896457825
-0.224191608045
-0.2353519660825
-0.246363670774
-0.257219766891
-0.2679133974895
-0.278437808244
-0.288786351711
-0.298952491529
-0.308929806545
-0.3187119948745
-0.3282928778765
-0.3376664040605
-0.3468266529065
-0.3557678386045
-0.3644843137105
-0.372970572712
-0.3812212555055
-0.3892311507835
-0.396995199324
-0.4045084971875
-0.411766298814
-0.418764020021
-0.4254972408975
-0.4319617085965
-0.438153340022
-0.444068224407
-0.449702625783
-0.4550529853425
-0.460115923683
-0.464888242944
-0.469366928827
-0.4735491524975
-0.4774322723735
-0.481013835793
-0.4842915805645
-0.4872634363935
-0.489927526192
-0.4922821672645
-0.494325872369
-0.496057350657
-0.4974755084905
-0.4985794501305
-0.499368478303
-0.4998420946415
-0.5
-0.4998420946415
-0.499368478303
-0.4985794501305
-0.4974755084905
-0.496057350657
-0.494325872369
-0.4922821672645
-0.489927526192
-0.4872634363935
-0.4842915805645
-0.481013835793
-0.4774322723735
-0.4735491524975
-0.469366928827
-0.464888242944
-0.460115923683
-0.4550529853425
-0.449702625783
-0.444068224407
-0.438153340022
-0.4319617085965
-0.4254972408975
-0.418764020021
-0.411766298814
-0.4045084971875
-0.396995199324
-0.3892311507835
-0.3812212555055
-0.372970572712
-0.3644843137105
-0.3557678386045
-0.3468266529065
-0.3376664040605
-0.3282928778765
-0.3187119948745
-0.308929806545
-0.298952491529
-0.288786351711
-0.278437808244
-0.2679133974895
-0.257219766891
-0.246363670774
-0.2353519660825
-0.224191608045
-0.2128896457825
-0.201453217857
-0.189889547761
-0.1782059393565
-0.1664097722615
-0.1545084971875
-0.142509631235
-0.130420753145
-0.118249498512
-0.106003554961
-0.093690657293
-0.0813185825975
-0.0688951453425
-0.0564281924365
-0.04392559827535
-0.03139525976465
-0.01884509133495
-0.00628301994165
0.00628301994165
0.01884509133495
0.03139525976465
0.04392559827535
0.0564281924365
0.0688951453425
0.0813185825975
0.093690657293
0.106003554961
0.118249498512
0.130420753145
0.142509631235
0.1545084971875
0.1664097722615
0.1782059393565
0.189889547761
0.201453217857
0.2128896457825
0.224191608045
0.2353519660825
0.246363670774
0.257219766891
0.2679133974895
0.278437808244
0.288786351711
0.298952491529
0.308929806545
0.3187119948745
0.3282928778765
0.3376664040605
0.3468266529065
0.3557678386045
0.3644843137105
0.372970572712
0.3812212555055
0.3892311507835
0.396995199324
0.4045084971875
0.411766298814
0.418764020021
0.4254972408975
0.4319617085965
0.438153340022
0.444068224407
0.449702625783
0.4550529853425
0.460115923683
0.464888242944
0.469366928827
0.4735491524975
0.4774322723735
0.481013835793
0.4842915805645
0.4872634363935
0.489927526192
0.4922821672645
0.494325872369
0.496057350657
0.4974755084905
0.4985794501305
0.499368478303
0.4998420946415
0.5
0.4998420946415
0.499368478303
0.4985794501305
